TIME,Addition_2.s_out.signal[1],SensorVoltage_1.v
0.0,0.0,0.0
0.00538608673,0.782172325,0.112284339
0.0107721735,1.54508497,0.36505517
0.0161582602,2.2699525,0.678697557
0.0215443469,2.93892626,1.00970013
0.0269304336,3.53553391,1.3324421
0.0323165204,4.04508497,1.63047484
0.0377026071,4.45503262,1.89231552
0.0430886938,4.75528258,2.1094875
0.0484747805,4.9384417,2.27565598
0.0538608673,5.0,2.38625046
0.059246954,4.9384417,2.43831161
0.0646330407,4.75528258,2.43044385
0.0700191274,4.45503262,2.36277801
0.0754052142,4.04508497,2.23696057
0.0807913009,3.53553391,2.05607411
0.0861773876,2.93892626,1.82456707
0.0915634743,2.2699525,1.54813759
0.0969495611,1.54508497,1.23358826
0.102335648,0.782172325,0.888663578
0.107721735,2.8327492300000003e-15,0.521857736
0.113107821,-0.782172325,0.142202594
0.118493908,-1.54508497,-0.240953755
0.123879995,-2.2699525,-0.618176958
0.129266081,-2.93892626,-0.98017895
0.134652168,-3.53553391,-1.31804572
0.140038255,-4.04508497,-1.62346013
0.145424342,-4.45503262,-1.8888971
0.150810428,-4.75528258,-2.10782342
0.156196515,-4.9384417,-2.27484811
0.161582602,-5.0,-2.38585867
0.166968688,-4.9384417,-2.4381212
0.172354775,-4.75528258,-2.43034679
0.177740862,-4.45503262,-2.36273113
0.183126949,-4.04508497,-2.23693712
0.188513035,-3.53553391,-2.05606233
0.193899122,-2.93892626,-1.82455983
0.199285209,-2.2699525,-1.54813242
0.204671296,-1.54508497,-1.23358413
0.210057382,-0.782172325,-0.888661474
0.215443469,2.54207462e-14,-0.521857552
0.220829556,0.782172325,-0.142202908
0.226215642,1.54508497,0.240953821
0.231601729,2.2699525,0.618177249
0.236987816,2.93892626,0.980178565
0.242373903,3.53553391,1.31804498
0.247759989,4.04508497,1.62345666
0.253146076,4.45503262,1.88889356
0.258532163,4.75528258,2.1078196
0.26391825,4.9384417,2.27484414
0.269304336,5.0,2.38585532
0.274690423,4.9384417,2.4381182
0.28007651,4.75528258,2.43034606
0.285462596,4.45503262,2.3627304
0.290848683,4.04508497,2.23693679
0.29623477,3.53553391,2.05606255
0.301620857,2.93892626,1.82456135
0.307006943,2.2699525,1.54813295
0.31239303,1.54508497,1.23358472
0.317779117,0.782172325,0.888661771
0.323165204,-6.03355798e-14,0.521856691
0.32855129,-0.782172325,0.142202727
0.333937377,-1.54508497,-0.240953663
0.339323464,-2.2699525,-0.618178157
0.34470955,-2.93892626,-0.980180009
0.350095637,-3.53553391,-1.31804589
0.355481724,-4.04508497,-1.62345466
0.360867811,-4.45503262,-1.88889174
0.366253897,-4.75528258,-2.10781916
0.371639984,-4.9384417,-2.27484432
0.377026071,-5.0,-2.38585553
0.382412157,-4.9384417,-2.43811754
0.387798244,-4.75528258,-2.43034567
0.393184331,-4.45503262,-2.36273032
0.398570418,-4.04508497,-2.23693675
0.403956504,-3.53553391,-2.05606234
0.409342591,-2.93892626,-1.8245609
0.414728678,-2.2699525,-1.54813301
0.420114765,-1.54508497,-1.23358469
0.425500851,-0.782172325,-0.888661449
0.430886938,9.52504135e-14,-0.521856884
0.436273025,0.782172325,-0.142201674
0.441659111,1.54508497,0.240954199
0.447045198,2.2699525,0.618178059
0.452431285,2.93892626,0.980179854
0.457817372,3.53553391,1.31804564
0.463203458,4.04508497,1.62345714
0.468589545,4.45503262,1.88889438
0.473975632,4.75528258,2.10781997
0.479361719,4.9384417,2.27484399
0.484747805,5.0,2.38585712
0.490133892,4.9384417,2.4381229
0.495519979,4.75528258,2.43035492
0.500906065,4.45503262,2.36273662
0.506292152,4.04508497,2.23694147
0.511678239,3.53553391,2.05606486
0.517064326,2.93892626,1.82456336
0.522450412,2.2699525,1.54813447
0.527836499,1.54508497,1.23358445
0.533222586,0.782172325,0.888661568
0.538608673,-1.30165247e-13,0.521856584
0.543994759,-0.782172325,0.142202107
0.549380846,-1.54508497,-0.240954141
0.554766933,-2.2699525,-0.618177851
0.560153019,-2.93892626,-0.980179566
0.565539106,-3.53553391,-1.31804603
0.570925193,-4.04508497,-1.62345735
0.57631128,-4.45503262,-1.88889396
0.581697366,-4.75528258,-2.10782102
0.587083453,-4.9384417,-2.27484476
0.59246954,-5.0,-2.38585539
0.597855626,-4.9384417,-2.43811831
0.603241713,-4.75528258,-2.43034575
0.6086278,-4.45503262,-2.36273029
0.614013887,-4.04508497,-2.23693653
0.619399973,-3.53553391,-2.05606133
0.62478606,-2.93892626,-1.82455982
0.630172147,-2.2699525,-1.54813249
0.635558234,-1.54508497,-1.23358474
0.64094432,-0.782172325,-0.888661248
0.646330407,1.56198296e-13,-0.52185768
0.651716494,0.782172325,-0.14220352
0.65710258,1.54508497,0.240953312
0.662488667,2.2699525,0.618177154
0.667874754,2.93892626,0.980180092
0.673260841,3.53553391,1.31804638
0.678646927,4.04508497,1.62345734
0.684033014,4.45503262,1.88889523
0.689419101,4.75528258,2.1078228
0.694805188,4.9384417,2.27484715
0.700191274,5.0,2.3858558
0.705577361,4.9384417,2.43811792
0.710963448,4.75528258,2.43034529
0.716349534,4.45503262,2.36273034
0.721735621,4.04508497,2.23693664
0.727121708,3.53553391,2.05606252
0.732507795,2.93892626,1.82456025
0.737893881,2.2699525,1.54813024
0.743279968,1.54508497,1.23358239
0.748666055,0.782172325,0.888660605
0.754052142,-1.9111313e-13,0.52185596
0.759438228,-0.782172325,0.142201182
0.764824315,-1.54508497,-0.240954567
0.770210402,-2.2699525,-0.618177762
0.775596488,-2.93892626,-0.980178967
0.780982575,-3.53553391,-1.31804564
0.786368662,-4.04508497,-1.62345702
0.791754749,-4.45503262,-1.88889397
0.797140835,-4.75528258,-2.10782024
0.802526922,-4.9384417,-2.2748452
0.807913009,-5.0,-2.38585585
0.813299095,-4.9384417,-2.43811983
0.818685182,-4.75528258,-2.43034911
0.824071269,-4.45503262,-2.36273228
0.829457356,-4.04508497,-2.23693729
0.834843442,-3.53553391,-2.05606535
0.840229529,-2.93892626,-1.82456427
0.845615616,-2.2699525,-1.54813595
0.851001703,-1.54508497,-1.2335876
0.856387789,-0.782172325,-0.88866292
0.861773876,2.26027964e-13,-0.521859318
0.867159963,0.782172325,-0.142204175
0.872546049,1.54508497,0.240952927
0.877932136,2.2699525,0.618177245
0.883318223,2.93892626,0.980179328
0.88870431,3.53553391,1.31804554
0.894090396,4.04508497,1.62345716
0.899476483,4.45503262,1.88889422
0.90486257,4.75528258,2.10781994
0.910248657,4.9384417,2.27484608
0.915634743,5.0,2.38585531
0.92102083,4.9384417,2.43811766
0.926406917,4.75528258,2.43034517
0.931793003,4.45503262,2.36272924
0.93717909,4.04508497,2.23693637
0.942565177,3.53553391,2.05606258
0.947951264,2.93892626,1.82456111
0.95333735,2.2699525,1.54813298
0.958723437,1.54508497,1.2335849
0.964109524,0.782172325,0.88866142
0.969495611,-2.60942797e-13,0.521856592
0.974881697,-0.782172325,0.142201537
0.980267784,-1.54508497,-0.240954676
0.985653871,-2.2699525,-0.618178076
0.991039957,-2.93892626,-0.980179808
0.996426044,-3.53553391,-1.31804673
1.00181213,-4.04508497,-1.62345781
1.00719822,-4.45503262,-1.88889427
1.0125843,-4.75528258,-2.10781949
1.01797039,-4.9384417,-2.27484441
1.02335648,-5.0,-2.38585455
1.02874256,-4.9384417,-2.43811762
1.03412865,-4.75528258,-2.43034537
1.03951474,-4.45503262,-2.36272968
1.04490082,-4.04508497,-2.23693847
1.05028691,-3.53553391,-2.05606577
1.055673,-2.93892626,-1.82456439
1.06105908,-2.2699525,-1.54813758
1.06644517,-1.54508497,-1.23358895
1.07183126,-0.782172325,-0.888663947
1.07721735,2.78094063e-13,-0.521857979
1.08260343,0.782172325,-0.142203257
1.08798952,1.54508497,0.240953487
1.09337561,2.2699525,0.618177275
1.09876169,2.93892626,0.980179142
1.10414778,3.53553391,1.31804531
1.10953387,4.04508497,1.62345677
1.11491995,4.45503262,1.88889342
1.12030604,4.75528258,2.10781929
1.12569213,4.9384417,2.27484378
1.13107821,5.0,2.38585394
1.1364643,4.9384417,2.43811663
1.14185039,4.75528258,2.43034462
1.14723647,4.45503262,2.36272966
1.15262256,4.04508497,2.2369364
1.15800865,3.53553391,2.05606241
1.16339473,2.93892626,1.82456046
1.16878082,2.2699525,1.54813144
1.17416691,1.54508497,1.23358557
1.17955299,0.782172325,0.888666131
1.18493908,-3.30772465e-13,0.521860566
1.19032517,-0.782172325,0.142204519
1.19571125,-1.54508497,-0.240952769
1.20109734,-2.2699525,-0.618177102
1.20648343,-2.93892626,-0.980179267
1.21186951,-3.53553391,-1.31804669
1.2172556,-4.04508497,-1.62345763
1.22264169,-4.45503262,-1.88889416
1.22802777,-4.75528258,-2.10781991
1.23341386,-4.9384417,-2.27484436
1.23879995,-5.0,-2.38585452
1.24418603,-4.9384417,-2.438117
1.24957212,-4.75528258,-2.43034509
1.25495821,-4.45503262,-2.36272996
1.26034429,-4.04508497,-2.23693626
1.26573038,-3.53553391,-2.05606112
1.27111647,-2.93892626,-1.82455974
1.27650255,-2.2699525,-1.54813236
1.28188864,-1.54508497,-1.23358575
1.28727473,-0.782172325,-0.888663969
1.29266081,3.4792373e-13,-0.521858089
1.2980469,0.782172325,-0.142202563
1.30343299,1.54508497,0.240953679
1.30881907,2.2699525,0.618176866
1.31420516,2.93892626,0.980179438
1.31959125,3.53553391,1.31804552
1.32497733,4.04508497,1.62345741
1.33036342,4.45503262,1.88889458
1.33574951,4.75528258,2.10781981
1.34113559,4.9384417,2.27484338
1.34652168,5.0,2.38585401
1.35190777,4.9384417,2.43811693
1.35729385,4.75528258,2.43034483
1.36267994,4.45503262,2.36272986
1.36806603,4.04508497,2.23693645
1.37345211,3.53553391,2.05606215
1.3788382,2.93892626,1.82456338
1.38422429,2.2699525,1.54813722
1.38961038,1.54508497,1.23358912
1.39499646,0.782172325,0.888665585
1.40038255,-4.00602132e-13,0.521859553
1.40576864,-0.782172325,0.142203211
1.41115472,-1.54508497,-0.240953423
1.41654081,-2.2699525,-0.618177285
1.4219269,-2.93892626,-0.980179316
1.42731298,-3.53553391,-1.31804707
1.43269907,-4.04508497,-1.62345876
1.43808516,-4.45503262,-1.88889658
1.44347124,-4.75528258,-2.10782132
1.44885733,-4.9384417,-2.27484501
1.45424342,-5.0,-2.38585491
1.4596295,-4.9384417,-2.43811863
1.46501559,-4.75528258,-2.43034583
1.47040168,-4.45503262,-2.36272951
1.47578776,-4.04508497,-2.23693502
1.48117385,-3.53553391,-2.05606115
1.48655994,-2.93892626,-1.82456044
1.49194602,-2.2699525,-1.5481333
1.49733211,-1.54508497,-1.23358487
1.5027182,-0.782172325,-0.888661855
1.50810428,4.17753397e-13,-0.521856726
1.51349037,0.782172325,-0.142201838
1.51887646,1.54508497,0.240954872
1.52426254,2.2699525,0.618178011
1.52964863,2.93892626,0.980179124
1.53503472,3.53553391,1.31804588
1.5404208,4.04508497,1.62345894
1.54580689,4.45503262,1.88889592
1.55119298,4.75528258,2.10782076
1.55657906,4.9384417,2.27484466
1.56196515,5.0,2.38585516
1.56735124,4.9384417,2.43811859
1.57273732,4.75528258,2.43034603
1.57812341,4.45503262,2.36273039
1.5835095,4.04508497,2.23693654
1.58889558,3.53553391,2.05606203
1.59428167,2.93892626,1.82456097
1.59966776,2.2699525,1.5481314
1.60505384,1.54508497,1.23358426
1.61043993,0.782172325,0.88866168
1.61582602,-4.70431799e-13,0.521857006
1.6212121,-0.782172325,0.142202316
1.62659819,-1.54508497,-0.240953951
1.63198428,-2.2699525,-0.61817756
1.63737036,-2.93892626,-0.980179571
1.64275645,-3.53553391,-1.31804574
1.64814254,-4.04508497,-1.62345759
1.65352862,-4.45503262,-1.88889493
1.65891471,-4.75528258,-2.10782233
1.6643008,-4.9384417,-2.27484554
1.66968688,-5.0,-2.38585569
1.67507297,-4.9384417,-2.43811911
1.68045906,-4.75528258,-2.4303491
1.68584514,-4.45503262,-2.36273241
1.69123123,-4.04508497,-2.236938
1.69661732,-3.53553391,-2.05606334
1.70200341,-2.93892626,-1.82456164
1.70738949,-2.2699525,-1.54813341
1.71277558,-1.54508497,-1.23358418
1.71816167,-0.782172325,-0.888663694
1.72354775,4.87583064e-13,-0.521858749
1.72893384,0.782172325,-0.142203843
1.73431993,1.54508497,0.240953196
1.73970601,2.2699525,0.618177279
1.7450921,2.93892626,0.980180102
1.75047819,3.53553391,1.31804644
1.75586427,4.04508497,1.62345892
1.76125036,4.45503262,1.88889613
1.76663645,4.75528258,2.10782257
1.77202253,4.9384417,2.27484791
1.77740862,5.0,2.38585626
1.78279471,4.9384417,2.43811707
1.78818079,4.75528258,2.43034526
1.79356688,4.45503262,2.36272967
1.79895297,4.04508497,2.23693699
1.80433905,3.53553391,2.05606189
1.80972514,2.93892626,1.8245612
1.81511123,2.2699525,1.54813332
1.82049731,1.54508497,1.23358383
1.8258834,0.782172325,0.888661509
1.83126949,-5.40261466e-13,0.521856217
1.83665557,-0.782172325,0.142201879
1.84204166,-1.54508497,-0.240954165
1.84742775,-2.2699525,-0.61817758
1.85281383,-2.93892626,-0.98017929
1.85819992,-3.53553391,-1.31804537
1.86358601,-4.04508497,-1.62345686
1.86897209,-4.45503262,-1.88889351
1.87435818,-4.75528258,-2.10781953
1.87974427,-4.9384417,-2.27484418
1.88513035,-5.0,-2.38585536
1.89051644,-4.9384417,-2.43811958
1.89590253,-4.75528258,-2.43034622
1.90128861,-4.45503262,-2.36273082
1.9066747,-4.04508497,-2.23693706
1.91206079,-3.53553391,-2.05606256
1.91744687,-2.93892626,-1.82456139
1.92283296,-2.2699525,-1.5481325
1.92821905,-1.54508497,-1.23358228
1.93360513,-0.782172325,-0.888660476
1.93899122,5.57412731e-13,-0.521856111
1.94437731,0.782172325,-0.142201771
1.94976339,1.54508497,0.240954686
1.95514948,2.2699525,0.618177399
1.96053557,2.93892626,0.98017904
1.96592165,3.53553391,1.31804528
1.97130774,4.04508497,1.6234598
1.97669383,4.45503262,1.88889735
1.98207991,4.75528258,2.10782221
1.987466,4.9384417,2.27484856
1.99285209,5.0,2.38585677
1.99823818,4.9384417,2.43811818
2.00362426,4.75528258,2.43034581
2.00901035,4.45503262,2.36273013
2.01439644,4.04508497,2.23693615
2.01978252,3.53553391,2.05606214
2.02516861,2.93892626,1.82456029
2.0305547,2.2699525,1.5481308
2.03594078,1.54508497,1.23358378
2.04132687,0.782172325,0.888661048
2.04671296,-3.61401176e-13,0.521856048
2.05209904,-0.782172325,0.142201479
2.05748513,-1.54508497,-0.240954938
2.06287122,-2.2699525,-0.618178062
2.0682573,-2.93892626,-0.980180001
2.07364339,-3.53553391,-1.31804672
2.07902948,-4.04508497,-1.62345931
2.08441556,-4.45503262,-1.88889736
2.08980165,-4.75528258,-2.10782207
2.09518774,-4.9384417,-2.27484491
2.10057382,-5.0,-2.38585473
2.10595991,-4.9384417,-2.4381157
2.111346,-4.75528258,-2.43034329
2.11673208,-4.45503262,-2.36273069
2.12211817,-4.04508497,-2.2369361
2.12750426,-3.53553391,-2.05606241
2.13289034,-2.93892626,-1.82455977
2.13827643,-2.2699525,-1.54813256
2.14366252,-1.54508497,-1.23358451
2.1490486,-0.782172325,-0.888661506
2.15443469,-2.60936021e-13,-0.521856883
