TIME,Addition_2.s_out.signal[1],SensorVoltage_1.v
0.0,0.0,0.0
0.000315464221,0.782172325,0.00812739592
0.000630928442,1.54508497,0.031861794
0.000946392662,2.2699525,0.0699676831
0.00126185688,2.93892626,0.120882506
0.0015773211,3.53553391,0.182753964
0.00189278532,4.04508497,0.253484703
0.00220824955,4.45503262,0.330782841
0.00252371377,4.75528258,0.412217447
0.00283917799,4.9384417,0.495277653
0.00315464221,5.0,0.577432858
0.00347010643,4.9384417,0.656195311
0.00378557065,4.75528258,0.729179905
0.00410103487,4.45503262,0.79416118
0.00441649909,4.04508497,0.849130235
0.00473196331,3.53553391,0.892339653
0.00504742753,2.93892626,0.922348977
0.00536289175,2.2699525,0.938058017
0.00567835597,1.54508497,0.938733384
0.00599382019,0.782172325,0.92402636
0.00630928442,-1.6081428700000002e-15,0.893980559
0.00662474864,-0.782172325,0.849031156
0.00694021286,-1.54508497,0.789991254
0.00725567708,-2.2699525,0.718035239
0.0075711413,-2.93892626,0.634663447
0.00788660552,-3.53553391,0.541671273
0.00820206974,-4.04508497,0.441101736
0.00851753396,-4.45503262,0.335193925
0.00883299818,-4.75528258,0.226327955
0.0091484624,-4.9384417,0.116966407
0.00946392662,-5.0,0.00959251802
0.00977939084,-4.9384417,-0.0933488644
0.0100948551,-4.75528258,-0.189516901
0.0104103193,-4.45503262,-0.276726649
0.0107257835,-4.04508497,-0.353008425
0.0110412477,-3.53553391,-0.416653414
0.0113567119,-2.93892626,-0.466256098
0.0116721762,-2.2699525,-0.500751546
0.0119876404,-1.54508497,-0.51943983
0.0123031046,-0.782172325,-0.522003427
0.0126185688,-1.89881747e-14,-0.50851688
0.0129340331,0.782172325,-0.479443829
0.0132494973,1.54508497,-0.435627971
0.0135649615,2.2699525,-0.378268493
0.0138804257,2.93892626,-0.308892221
0.0141958899,3.53553391,-0.229318412
0.0145113542,4.04508497,-0.141614525
0.0148268184,4.45503262,-0.0480424327
0.0151422826,4.75528258,0.0489958243
0.0154577468,4.9384417,0.147016829
0.015773211,5.0,0.243516753
0.0160886753,4.9384417,0.336032983
0.0164041395,4.75528258,0.422204203
0.0167196037,4.45503262,0.499831055
0.0170350679,4.04508497,0.566923042
0.0173505321,3.53553391,0.621756756
0.0176659964,2.93892626,0.662913264
0.0179814606,2.2699525,0.689308524
0.0182969248,1.54508497,0.700229874
0.018612389,0.782172325,0.695346683
0.0189278532,3.73640463e-14,0.674720102
0.0192433175,-0.782172325,0.638801875
0.0195587817,-1.54508497,0.588422136
0.0198742459,-2.2699525,0.524768749
0.0201897101,-2.93892626,0.449357991
0.0205051743,-3.53553391,0.363998391
0.0208206386,-4.04508497,0.27074635
0.0211361028,-4.45503262,0.171854394
0.021451567,-4.75528258,0.0697162667
0.0217670312,-4.9384417,-0.0331943603
0.0220824955,-5.0,-0.13438251
0.0223979597,-4.9384417,-0.231394497
0.0227134239,-4.75528258,-0.321877476
0.0230288881,-4.45503262,-0.403635686
0.0233443523,-4.04508497,-0.474690711
0.0236598166,-3.53553391,-0.533323932
0.0239752808,-2.93892626,-0.57812221
0.024290745,-2.2699525,-0.608010782
0.0246062092,-1.54508497,-0.622280164
0.0249216734,-0.782172325,-0.620607753
0.0252371377,-6.46217021e-14,-0.603059612
0.0255526019,0.782172325,-0.570092374
0.0258680661,1.54508497,-0.522541326
0.0261835303,2.2699525,-0.461601238
0.0264989945,2.93892626,-0.388791978
0.0268144588,3.53553391,-0.305927658
0.027129923,4.04508497,-0.215068156
0.0274453872,4.45503262,-0.11846995
0.0277608514,4.75528258,-0.0185308158
0.0280763156,4.9384417,0.0822720644
0.0283917799,5.0,0.181439284
0.0287072441,4.9384417,0.276512754
0.0290227083,4.75528258,0.365135747
0.0293381725,4.45503262,0.445112274
0.0296536368,4.04508497,0.514458127
0.029969101,3.53553391,0.571453073
0.0302845652,2.93892626,0.614680157
0.0306000294,2.2699525,0.643061873
0.0309154936,1.54508497,0.655888074
0.0312309579,0.782172325,0.65283131
0.0315464221,9.18793579e-14,0.633955911
0.0318618863,-0.782172325,0.599716112
0.0321773505,-1.54508497,0.550944925
0.0324928147,-2.2699525,0.488833365
0.032808279,-2.93892626,0.414901624
0.0331237432,-3.53553391,0.330961359
0.0334392074,-4.04508497,0.239070414
0.0337546716,-4.45503262,0.141484126
0.0340701358,-4.75528258,0.040596522
0.0343856001,-4.9384417,-0.0611161722
0.0347010643,-5.0,-0.161155104
0.0350165285,-4.9384417,-0.257064115
0.0353319927,-4.75528258,-0.346487679
0.0356474569,-4.45503262,-0.427232155
0.0359629212,-4.04508497,-0.497314482
0.0362783854,-3.53553391,-0.555015177
0.0365938496,-2.93892626,-0.598919017
0.0369093138,-2.2699525,-0.627950529
0.0372247781,-1.54508497,-0.641399331
0.0375402423,-0.782172325,-0.638939432
0.0378557065,4.96168861e-14,-0.620636233
0.0381711707,0.782172325,-0.586945024
0.0384866349,1.54508497,-0.538699801
0.0388020992,2.2699525,-0.477093572
0.0391175634,2.93892626,-0.403646561
0.0394330276,3.53553391,-0.320170253
0.0397484918,4.04508497,-0.228724665
0.040063956,4.45503262,-0.131564336
0.0403794203,4.75528258,-0.0310861161
0.0406948845,4.9384417,0.0702333687
0.0410103487,5.0,0.169896039
0.0413258129,4.9384417,0.26544481
0.0416412771,4.75528258,0.354524296
0.0419567414,4.45503262,0.434937629
0.0422722056,4.04508497,0.504702787
0.0425876698,3.53553391,0.562098964
0.042903134,2.93892626,0.605710988
0.0432185982,2.2699525,0.634462137
0.0435340625,1.54508497,0.647642485
0.0438495267,0.782172325,0.644925359
0.0441649909,-2.08876698e-13,0.626375592
0.0444804551,-0.782172325,0.592447979
0.0447959193,-1.54508497,0.543977093
0.0451113836,-2.2699525,0.482154075
0.0454268478,-2.93892626,0.408498356
0.045742312,-3.53553391,0.324822549
0.0460577762,-4.04508497,0.233185156
0.0463732405,-4.45503262,0.135841801
0.0466887047,-4.75528258,0.0351875662
0.0470041689,-4.9384417,-0.0663008951
0.0473196331,-5.0,-0.166125566
0.0476350973,-4.9384417,-0.261829805
0.0479505616,-4.75528258,-0.351058
0.0482660258,-4.45503262,-0.431614916
0.04858149,-4.04508497,-0.501517251
0.0488969542,-3.53553391,-0.559045796
0.0492124184,-2.93892626,-0.602784089
0.0495278827,-2.2699525,-0.631656263
0.0498433469,-1.54508497,-0.644952237
0.0501588111,-0.782172325,-0.642345918
0.0504742753,3.50372942e-13,-0.623902391
0.0507897395,0.782172325,-0.590077282
0.0511052038,1.54508497,-0.54170447
0.051420668,2.2699525,-0.479975211
0.0517361322,2.93892626,-0.4064096
0.0520515964,3.53553391,-0.322820741
0.0523670606,4.04508497,-0.231265408
0.0526825249,4.45503262,-0.134000797
0.0529979891,4.75528258,-0.0334218055
0.0533134533,4.9384417,0.0679944924
0.0536289175,5.0,0.167749329
0.0539443818,4.9384417,0.263386668
0.054259846,4.75528258,0.352550784
0.0545753102,4.45503262,0.433045954
0.0548907744,4.04508497,0.502889296
0.0552062386,3.53553391,0.560360158
0.0555217029,2.93892626,0.604043611
0.0558371671,2.2699525,0.632863429
0.0561526313,1.54508497,0.646109572
0.0564680955,0.782172325,0.64345545
0.0567835597,-4.91869186e-13,0.624966276
0.057099024,-0.782172325,0.591096739
0.0574144882,-1.54508497,0.542680568
0.0577299524,-2.2699525,0.480909533
0.0580454166,-2.93892626,0.407304318
0.0583608808,-3.53553391,0.323676995
0.0586763451,-4.04508497,0.232086116
0.0589918093,-4.45503262,0.134787504
0.0593072735,-4.75528258,0.0341761991
0.0596227377,-4.9384417,-0.0672705259
0.0599382019,-5.0,-0.167055055
0.0602536662,-4.9384417,-0.262720797
0.0605691304,-4.75528258,-0.351911924
0.0608845946,-4.45503262,-0.432432997
0.0612000588,-4.04508497,-0.502300984
0.061515523,-3.53553391,-0.559796091
0.0618309873,-2.93892626,-0.603502785
0.0621464515,-2.2699525,-0.63234543
0.0624619157,-1.54508497,-0.645614301
0.0627773799,-0.782172325,-0.642981283
0.0630928442,6.15601862e-13,-0.624511561
0.0634083084,0.782172325,-0.590661564
0.0637237726,1.54508497,-0.542264421
0.0640392368,2.2699525,-0.480511262
0.064354701,2.93892626,-0.406923283
0.0646701653,3.53553391,-0.323312604
0.0649856295,4.04508497,-0.231737708
0.0653010937,4.45503262,-0.134454251
0.0656165579,4.75528258,-0.0338569347
0.0659320221,4.9384417,0.0675767064
0.0662474864,5.0,0.167348711
0.0665629506,4.9384417,0.26300246
0.0668784148,4.75528258,0.352182469
0.067193879,4.45503262,0.432692265
0.0675093432,4.04508497,0.502549741
0.0678248075,3.53553391,0.560034647
0.0681402717,2.93892626,0.60373145
0.0684557359,2.2699525,0.632564129
0.0687712001,1.54508497,0.645822982
0.0690866643,0.782172325,0.643182623
0.0694021286,-7.57098106e-13,0.624705619
0.0697175928,-0.782172325,0.590848047
0.070033057,-1.54508497,0.542440993
0.0703485212,-2.2699525,0.48067957
0.0706639855,-2.93892626,0.407084413
0.0709794497,-3.53553391,0.323466599
0.0712949139,-4.04508497,0.231884954
0.0716103781,-4.45503262,0.134593884
0.0719258423,-4.75528258,0.0339888661
0.0722413066,-4.9384417,-0.0674510258
0.0725567708,-5.0,-0.167228545
0.072872235,-4.9384417,-0.262886431
0.0731876992,-4.75528258,-0.352071206
0.0735031634,-4.45503262,-0.432586066
0.0738186277,-4.04508497,-0.502447811
0.0741340919,-3.53553391,-0.559936917
0.0744495561,-2.93892626,-0.603637751
0.0747650203,-2.2699525,-0.632474244
0.0750804845,-1.54508497,-0.645736467
0.0753959488,-0.782172325,-0.643097849
0.075711413,9.16357918e-13,-0.624623376
0.0760268772,0.782172325,-0.590767949
0.0763423414,1.54508497,-0.542365276
0.0766578056,2.2699525,-0.480607176
0.0769732699,2.93892626,-0.407014386
0.0772887341,3.53553391,-0.323398855
0.0776041983,4.04508497,-0.23181999
0.0779196625,4.45503262,-0.134532188
0.0782351268,4.75528258,-0.0339315367
0.078550591,4.9384417,0.0675052043
0.0788660552,5.0,0.167281144
0.0791815194,4.9384417,0.26293745
0.0794969836,4.75528258,0.35212014
0.0798124479,4.45503262,0.432632087
0.0801279121,4.04508497,0.502492262
0.0804433763,3.53553391,0.559979829
0.0807588405,2.93892626,0.603678868
0.0810743047,2.2699525,0.632514059
0.081389769,1.54508497,0.645774663
0.0817052332,0.782172325,0.643134482
0.0820206974,-1.04009059e-12,0.624658484
0.0823361616,-0.782172325,0.590802324
0.0826516258,-1.54508497,0.54240064
0.0829670901,-2.2699525,0.480642012
0.0832825543,-2.93892626,0.407048841
0.0835980185,-3.53553391,0.323432707
0.0839134827,-4.04508497,0.231852861
0.0842289469,-4.45503262,0.134564161
0.0845444112,-4.75528258,0.0339622848
0.0848598754,-4.9384417,-0.0674748367
0.0851753396,-5.0,-0.167251097
0.0854908038,-4.9384417,-0.262909169
0.085806268,-4.75528258,-0.3520932
0.0861217323,-4.45503262,-0.432607235
0.0864371965,-4.04508497,-0.502469181
0.0867526607,-3.53553391,-0.559957325
0.0870681249,-2.93892626,-0.603657145
0.0873835892,-2.2699525,-0.632492925
0.0876990534,-1.54508497,-0.645754352
0.0880145176,-0.782172325,-0.643114991
0.0883299818,1.19935041e-12,-0.624640023
0.088645446,0.782172325,-0.590784954
0.0889609103,1.54508497,-0.542381024
0.0892763745,2.2699525,-0.480623161
0.0895918387,2.93892626,-0.407029656
0.0899073029,3.53553391,-0.323413572
0.0902227671,4.04508497,-0.231834485
0.0905382314,4.45503262,-0.134546779
0.0908536956,4.75528258,-0.0339455023
0.0911691598,4.9384417,0.0674917855
0.091484624,5.0,0.167267894
0.0918000882,4.9384417,0.262926226
0.0921155525,4.75528258,0.352109071
0.0924310167,4.45503262,0.43262247
0.0927464809,4.04508497,0.502483628
0.0930619451,3.53553391,0.559971286
0.0933774093,2.93892626,0.603670719
0.0936928736,2.2699525,0.632506265
0.0940083378,1.54508497,0.645767497
0.094323802,0.782172325,0.643127648
0.0946392662,-1.35861022e-12,0.624651965
0.0949547305,-0.782172325,0.590795388
0.0952701947,-1.54508497,0.542391508
0.0955856589,-2.2699525,0.480632201
0.0959011231,-2.93892626,0.407038346
0.0962165873,-3.53553391,0.323421847
0.0965320516,-4.04508497,0.231841856
0.0968475158,-4.45503262,0.134553154
0.09716298,-4.75528258,0.0339514938
0.0974784442,-4.9384417,-0.0674861182
0.0977939084,-5.0,-0.167262088
0.0981093727,-4.9384417,-0.262918853
0.0984248369,-4.75528258,-0.352102315
0.0987403011,-4.45503262,-0.432614941
0.0990557653,-4.04508497,-0.502476059
0.0993712295,-3.53553391,-0.559963971
0.0996866938,-2.93892626,-0.603663768
0.100002158,-2.2699525,-0.632499467
0.100317622,-1.54508497,-0.645760894
0.100633086,-0.782172325,-0.643121647
0.100948551,1.48234289e-12,-0.624647267
0.101264015,0.782172325,-0.590790627
0.101579479,1.54508497,-0.542386993
0.101894943,2.2699525,-0.480628055
0.102210408,2.93892626,-0.407035176
0.102525872,3.53553391,-0.323419387
0.102841336,4.04508497,-0.231839456
0.1031568,4.45503262,-0.134551019
0.103472264,4.75528258,-0.0339490454
0.103787729,4.9384417,0.0674884223
0.104103193,5.0,0.167265154
0.104418657,4.9384417,0.262921724
0.104734121,4.75528258,0.35210456
0.105049586,4.45503262,0.43261796
0.10536505,4.04508497,0.502478205
0.105680514,3.53553391,0.559966437
0.105995978,2.93892626,0.603665806
0.106311442,2.2699525,0.632501233
0.106626907,1.54508497,0.645762363
0.106942371,0.782172325,0.64312273
0.107257835,-1.64160271e-12,0.624647225
0.107573299,-0.782172325,0.590791484
0.107888764,-1.54508497,0.5423902
0.108204228,-2.2699525,0.480631452
0.108519692,-2.93892626,0.407037127
0.108835156,-3.53553391,0.323421202
0.10915062,-4.04508497,0.231842597
0.109466085,-4.45503262,0.134553718
0.109781549,-4.75528258,0.0339521808
0.110097013,-4.9384417,-0.0674859687
0.110412477,-5.0,-0.167261847
0.110727941,-4.9384417,-0.262919353
0.111043406,-4.75528258,-0.352103073
0.11135887,-4.45503262,-0.432616664
0.111674334,-4.04508497,-0.50247711
0.111989798,-3.53553391,-0.559965192
0.112305263,-2.93892626,-0.603664869
0.112620727,-2.2699525,-0.632500288
0.112936191,-1.54508497,-0.645761636
0.113251655,-0.782172325,-0.643121994
0.113567119,1.76533538e-12,-0.624646521
0.113882584,0.782172325,-0.590790152
0.114198048,1.54508497,-0.542386561
0.114513512,2.2699525,-0.480627613
0.114828976,2.93892626,-0.407034022
0.115144441,3.53553391,-0.323417882
0.115459905,4.04508497,-0.231838131
0.115775369,4.45503262,-0.134549563
0.116090833,4.75528258,-0.0339480933
0.116406297,4.9384417,0.0674891906
0.116721762,5.0,0.167264746
0.117037226,4.9384417,0.262922059
0.11735269,4.75528258,0.352105835
0.117668154,4.45503262,0.432619048
0.117983619,4.04508497,0.502479529
0.118299083,3.53553391,0.559968397
0.118614547,2.93892626,0.603667963
0.118930011,2.2699525,0.632503411
0.119245475,1.54508497,0.645764459
0.11956094,0.782172325,0.643124684
0.119876404,-1.92459519e-12,0.624649108
0.120191868,-0.782172325,0.590792659
0.120507332,-1.54508497,0.542388988
0.120822797,-2.2699525,0.480630814
0.121138261,-2.93892626,0.407037598
0.121453725,-3.53553391,0.3234213
0.121769189,-4.04508497,0.231841739
0.122084653,-4.45503262,0.134553461
0.122400118,-4.75528258,0.0339522703
0.122715582,-4.9384417,-0.0674853384
0.123031046,-5.0,-0.167261141
0.12334651,-4.9384417,-0.262918258
0.123661975,-4.75528258,-0.352101371
0.123977439,-4.45503262,-0.432614513
0.124292903,-4.04508497,-0.5024752
0.124608367,-3.53553391,-0.559964051
0.124923831,-2.93892626,-0.60366376
0.125239296,-2.2699525,-0.632499421
0.12555476,-1.54508497,-0.645761357
0.125870224,-0.782172325,-0.64312146
0.126185688,-1.22460635e-14,-0.624645907
