TIME,Addition_2.s_out.signal[1],SensorVoltage_1.v
0.0,0.0,0.0
0.00160701828,0.782172325,0.0391382027
0.00321403656,1.54508497,0.145347847
0.00482105484,2.2699525,0.302891825
0.00642807312,2.93892626,0.497303789
0.0080350914,3.53553391,0.715241048
0.00964210968,4.04508497,0.94444226
0.011249128,4.45503262,1.17369117
0.0128561462,4.75528258,1.39285186
0.0144631645,4.9384417,1.59289597
0.0160701828,5.0,1.76597312
0.0176772011,4.9384417,1.90545637
0.0192842194,4.75528258,2.00600342
0.0208912376,4.45503262,2.06360122
0.0224982559,4.04508497,2.07558674
0.0241052742,3.53553391,2.04066264
0.0257122925,2.93892626,1.9588787
0.0273193107,2.2699525,1.83159537
0.028926329,1.54508497,1.66142093
0.0305333473,0.782172325,1.45211825
0.0321403656,5.05319528e-15,1.20849758
0.0337473839,-0.782172325,0.936277195
0.0353544021,-1.54508497,0.641940121
0.0369614204,-2.2699525,0.33255235
0.0385684387,-2.93892626,0.0155867754
0.040175457,-3.53553391,-0.301269983
0.0417824753,-4.04508497,-0.610311261
0.0433894935,-4.45503262,-0.904003621
0.0449965118,-4.75528258,-1.17517676
0.0466035301,-4.9384417,-1.41720553
0.0482105484,-5.0,-1.62416928
0.0498175667,-4.9384417,-1.79100256
0.0514245849,-4.75528258,-1.9136268
0.0530316032,-4.45503262,-1.98904334
0.0546386215,-4.04508497,-2.01540925
0.0562456398,-3.53553391,-1.99209186
0.0578526581,-2.93892626,-1.91967576
0.0594596763,-2.2699525,-1.79995312
0.0610666946,-1.54508497,-1.63587975
0.0626737129,-0.782172325,-1.43150098
0.0642807312,-1.01063906e-14,-1.19185628
0.0658877495,0.782172325,-0.922845675
0.0674947677,1.54508497,-0.631100453
0.069101786,2.2699525,-0.323804668
0.0707088043,2.93892626,-0.00852691054
0.0723158226,3.53553391,0.306968144
0.0739228408,4.04508497,0.614910016
0.0755298591,4.45503262,0.907715426
0.0771368774,4.75528258,1.17817368
0.0787438957,4.9384417,1.4196231
0.080350914,5.0,1.6261188
0.0819579322,4.9384417,1.79257629
0.0835649505,4.75528258,1.91489607
0.0851719688,4.45503262,1.99006631
0.0867789871,4.04508497,2.01623522
0.0883860054,3.53553391,1.99275829
0.0899930236,2.93892626,1.92021356
0.0916000419,2.2699525,1.80038697
0.0932070602,1.54508497,1.63622962
0.0948140785,0.782172325,1.43178358
0.0964210968,1.96004779e-14,1.19208245
0.098028115,-0.782172325,0.923028554
0.0996351333,-1.54508497,0.631246872
0.101242152,-2.2699525,0.323921742
0.10284917,-2.93892626,0.00862010441
0.104456188,-3.53553391,-0.306892946
0.106063206,-4.04508497,-0.614850151
0.107670225,-4.45503262,-0.90765831
0.109277243,-4.75528258,-1.17812659
0.110884261,-4.9384417,-1.41958527
0.11249128,-5.0,-1.62609151
0.114098298,-4.9384417,-1.79256085
0.115705316,-4.75528258,-1.91488658
0.117312334,-4.45503262,-1.99006152
0.118919353,-4.04508497,-2.01623509
0.120526371,-3.53553391,-1.99276556
0.122133389,-2.93892626,-1.92021863
0.123740408,-2.2699525,-1.80039172
0.125347426,-1.54508497,-1.63623331
0.126954444,-0.782172325,-1.43178492
0.128561462,-2.02127811e-14,-1.19208405
0.130168481,0.782172325,-0.923029839
0.131775499,1.54508497,-0.631247452
0.133382517,2.2699525,-0.323921407
0.134989535,2.93892626,-0.00862053924
0.136596554,3.53553391,0.306893122
0.138203572,4.04508497,0.614849471
0.13981059,4.45503262,0.907666953
0.141417609,4.75528258,1.17813357
0.143024627,4.9384417,1.41959335
0.144631645,5.0,1.62609494
0.146238663,4.9384417,1.79255672
0.147845682,4.75528258,1.91488028
0.1494527,4.45503262,1.99005371
0.151059718,4.04508497,2.01622543
0.152666737,3.53553391,1.99275171
0.154273755,2.93892626,1.92021133
0.155880773,2.2699525,1.80039141
0.157487791,1.54508497,1.63623462
0.15909481,0.782172325,1.43179072
0.160701828,2.97068685e-14,1.19209033
0.162308846,-0.782172325,0.923037085
0.163915864,-1.54508497,0.631255979
0.165522883,-2.2699525,0.323932225
0.167129901,-2.93892626,0.0086296192
0.168736919,-3.53553391,-0.306885187
0.170343938,-4.04508497,-0.614843417
0.171950956,-4.45503262,-0.907662921
0.173557974,-4.75528258,-1.17813058
0.175164992,-4.9384417,-1.41958878
0.176772011,-5.0,-1.62609295
0.178379029,-4.9384417,-1.79255629
0.179986047,-4.75528258,-1.91487979
0.181593066,-4.45503262,-1.99005274
0.183200084,-4.04508497,-2.0162242
0.184807102,-3.53553391,-1.99275061
0.18641412,-2.93892626,-1.92021075
0.188021139,-2.2699525,-1.80038727
0.189628157,-1.54508497,-1.63622992
0.191235175,-0.782172325,-1.43178376
0.192842194,-3.92009558e-14,-1.19208549
0.194449212,0.782172325,-0.92303438
0.19605623,1.54508497,-0.631253155
0.197663248,2.2699525,-0.323927877
0.199270267,2.93892626,-0.00862595734
0.200877285,3.53553391,0.306888362
0.202484303,4.04508497,0.614845677
0.204091321,4.45503262,0.907664446
0.20569834,4.75528258,1.17813211
0.207305358,4.9384417,1.41959115
0.208912376,5.0,1.62609502
0.210519395,4.9384417,1.79255923
0.212126413,4.75528258,1.91488411
0.213733431,4.45503262,1.9900579
0.215340449,4.04508497,2.0162308
0.216947468,3.53553391,1.99275726
0.218554486,2.93892626,1.92021558
0.220161504,2.2699525,1.80039136
0.221768523,1.54508497,1.6362373
0.223375541,0.782172325,1.43179328
0.224982559,3.9813259e-14,1.1920919
0.226589577,-0.782172325,0.923041132
0.228196596,-1.54508497,0.631256685
0.229803614,-2.2699525,0.32392949
0.231410632,-2.93892626,0.0086270024
0.233017651,-3.53553391,-0.306887379
0.234624669,-4.04508497,-0.614844693
0.236231687,-4.45503262,-0.907662668
0.237838705,-4.75528258,-1.17813123
0.239445724,-4.9384417,-1.41959159
0.241052742,-5.0,-1.62609382
0.24265976,-4.9384417,-1.79255645
0.244266778,-4.75528258,-1.91488116
0.245873797,-4.45503262,-1.9900541
0.247480815,-4.04508497,-2.01622509
0.249087833,-3.53553391,-1.99275016
0.250694852,-2.93892626,-1.92020714
0.25230187,-2.2699525,-1.80038242
0.253908888,-1.54508497,-1.63622506
0.255515906,-0.782172325,-1.43177997
0.257122925,1.2865143e-14,-1.19207964
0.258729943,0.782172325,-0.923028909
0.260336961,1.54508497,-0.631248351
0.26194398,2.2699525,-0.323922959
0.263550998,2.93892626,-0.00862174988
0.265158016,3.53553391,0.306892046
0.266765034,4.04508497,0.614848649
0.268372053,4.45503262,0.907666471
0.269979071,4.75528258,1.17813298
0.271586089,4.9384417,1.41959019
0.273193107,5.0,1.62609242
0.274800126,4.9384417,1.79255477
0.276407144,4.75528258,1.91487866
0.278014162,4.45503262,1.99005183
0.279621181,4.04508497,2.01622376
0.281228199,3.53553391,1.99274899
0.282835217,2.93892626,1.92020618
0.284442235,2.2699525,1.80038172
0.286049254,1.54508497,1.63622531
0.287656272,0.782172325,1.43177905
0.28926329,-2.78706366e-13,1.19208054
0.290870309,-0.782172325,0.923027264
0.292477327,-1.54508497,0.631245797
0.294084345,-2.2699525,0.323920609
0.295691363,-2.93892626,0.00862000067
0.297298382,-3.53553391,-0.306894294
0.2989054,-4.04508497,-0.614853717
0.300512418,-4.45503262,-0.907669787
0.302119437,-4.75528258,-1.17813612
0.303726455,-4.9384417,-1.4195939
0.305333473,-5.0,-1.62609489
0.306940491,-4.9384417,-1.79255707
0.30854751,-4.75528258,-1.9148799
0.310154528,-4.45503262,-1.99005268
0.311761546,-4.04508497,-2.01622413
0.313368564,-3.53553391,-1.99274934
0.314975583,-2.93892626,-1.92020634
0.316582601,-2.2699525,-1.80038168
0.318189619,-1.54508497,-1.6362252
0.319796638,-0.782172325,-1.4317802
0.321403656,5.44547588e-13,-1.19207989
0.323010674,0.782172325,-0.923026202
0.324617692,1.54508497,-0.631246164
0.326224711,2.2699525,-0.323921743
0.327831729,2.93892626,-0.00862156898
0.329438747,3.53553391,0.306891737
0.331045766,4.04508497,0.614849188
0.332652784,4.45503262,0.907668458
0.334259802,4.75528258,1.17813554
0.33586682,4.9384417,1.41959351
0.337473839,5.0,1.62609662
0.339080857,4.9384417,1.79255742
0.340687875,4.75528258,1.91488076
0.342294893,4.45503262,1.99005488
0.343901912,4.04508497,2.01622855
0.34550893,3.53553391,1.99275222
0.347115948,2.93892626,1.92020882
0.348722967,2.2699525,1.80038446
0.350329985,1.54508497,1.63622795
0.351937003,0.782172325,1.43178178
0.353544021,-7.92625243e-13,1.19208076
0.35515104,-0.782172325,0.923027135
0.356758058,-1.54508497,0.631245659
0.358365076,-2.2699525,0.323920552
0.359972095,-2.93892626,0.008619838
0.361579113,-3.53553391,-0.306893359
0.363186131,-4.04508497,-0.614850456
0.364793149,-4.45503262,-0.907666872
0.366400168,-4.75528258,-1.17813601
0.368007186,-4.9384417,-1.41959283
0.369614204,-5.0,-1.62609611
0.371221223,-4.9384417,-1.7925597
0.372828241,-4.75528258,-1.91488293
0.374435259,-4.45503262,-1.99005497
0.376042277,-4.04508497,-2.01622535
0.377649296,-3.53553391,-1.99275037
0.379256314,-2.93892626,-1.92020735
0.380863332,-2.2699525,-1.80038255
0.38247035,-1.54508497,-1.63622537
0.384077369,-0.782172325,-1.43177872
0.385684387,1.05846647e-12,-1.19207871
0.387291405,0.782172325,-0.923025526
0.388898424,1.54508497,-0.631243782
0.390505442,2.2699525,-0.323919262
0.39211246,2.93892626,-0.00861919427
0.393719478,3.53553391,0.306893601
0.395326497,4.04508497,0.614849741
0.396933515,4.45503262,0.907666254
0.398540533,4.75528258,1.17813362
0.400147552,4.9384417,1.41959273
0.40175457,5.0,1.62609876
0.403361588,4.9384417,1.79256121
0.404968606,4.75528258,1.91488326
0.406575625,4.45503262,1.99005556
0.408182643,4.04508497,2.01622909
0.409789661,3.53553391,1.99275641
0.41139668,2.93892626,1.92021711
0.413003698,2.2699525,1.80039636
0.414610716,1.54508497,1.63623763
0.416217734,0.782172325,1.4317902
0.417824753,-1.32430769e-12,1.19208753
0.419431771,-0.782172325,0.923032817
0.421038789,-1.54508497,0.631249747
0.422645807,-2.2699525,0.323924989
0.424252826,-2.93892626,0.00862379861
0.425859844,-3.53553391,-0.306890156
0.427466862,-4.04508497,-0.614847307
0.429073881,-4.45503262,-0.907666482
0.430680899,-4.75528258,-1.17813327
0.432287917,-4.9384417,-1.41959002
0.433894935,-5.0,-1.62609266
0.435501954,-4.9384417,-1.7925548
0.437108972,-4.75528258,-1.91487857
0.43871599,-4.45503262,-1.99005177
0.440323009,-4.04508497,-2.01622326
0.441930027,-3.53553391,-1.99274863
0.443537045,-2.93892626,-1.92020566
0.445144063,-2.2699525,-1.80038069
0.446751082,-1.54508497,-1.63622487
0.4483581,-0.782172325,-1.43177979
0.449965118,1.59014891e-12,-1.19207939
0.451572136,0.782172325,-0.923027816
0.453179155,1.54508497,-0.631248106
0.454786173,2.2699525,-0.323923099
0.456393191,2.93892626,-0.00862281839
0.45800021,3.53553391,0.306890958
0.459607228,4.04508497,0.614844215
0.461214246,4.45503262,0.907663321
0.462821264,4.75528258,1.17813455
0.464428283,4.9384417,1.4195922
0.466035301,5.0,1.6260941
0.467642319,4.9384417,1.79255587
0.469249338,4.75528258,1.91487804
0.470856356,4.45503262,1.99005104
0.472463374,4.04508497,2.01622234
0.474070392,3.53553391,1.99274793
0.475677411,2.93892626,1.92020538
0.477284429,2.2699525,1.8003809
0.478891447,1.54508497,1.63622513
0.480498466,0.782172325,1.43178016
0.482105484,-1.85599013e-12,1.19208134
0.483712502,-0.782172325,0.923030002
0.48531952,-1.54508497,0.631248894
0.486926539,-2.2699525,0.323924212
0.488533557,-2.93892626,0.00862251
0.490140575,-3.53553391,-0.306890866
0.491747593,-4.04508497,-0.61484744
0.493354612,-4.45503262,-0.907664081
0.49496163,-4.75528258,-1.17813121
0.496568648,-4.9384417,-1.41959059
0.498175667,-5.0,-1.62609502
0.499782685,-4.9384417,-1.79255748
0.501389703,-4.75528258,-1.91488134
0.502996721,-4.45503262,-1.9900537
0.50460374,-4.04508497,-2.01622507
0.506210758,-3.53553391,-1.99275001
0.507817776,-2.93892626,-1.92020695
0.509424795,-2.2699525,-1.80038174
0.511031813,-1.54508497,-1.6362258
0.512638831,-0.782172325,-1.43178171
0.514245849,1.8731414e-12,-1.19208449
0.515852868,0.782172325,-0.923031811
0.517459886,1.54508497,-0.63125038
0.519066904,2.2699525,-0.323925417
0.520673922,2.93892626,-0.00862404482
0.522280941,3.53553391,0.306889697
0.523887959,4.04508497,0.614847115
0.525494977,4.45503262,0.907664995
0.527101996,4.75528258,1.17813276
0.528709014,4.9384417,1.4195902
0.530316032,5.0,1.62609445
0.53192305,4.9384417,1.79255863
0.533530069,4.75528258,1.91487815
0.535137087,4.45503262,1.99005619
0.536744105,4.04508497,2.01623024
0.538351124,3.53553391,1.99275727
0.539958142,2.93892626,1.92021488
0.54156516,2.2699525,1.80038875
0.543172178,1.54508497,1.63623101
0.544779197,0.782172325,1.43178648
0.546386215,-1.60607557e-12,1.19208668
0.547993233,-0.782172325,0.923034934
0.549600252,-1.54508497,0.63125772
0.55120727,-2.2699525,0.323930227
0.552814288,-2.93892626,0.00862711647
0.554421306,-3.53553391,-0.306886946
0.556028325,-4.04508497,-0.614844641
0.557635343,-4.45503262,-0.907664321
0.559242361,-4.75528258,-1.17813233
0.560849379,-4.9384417,-1.41959059
0.562456398,-5.0,-1.62609475
0.564063416,-4.9384417,-1.79255856
0.565670434,-4.75528258,-1.91487414
0.567277453,-4.45503262,-1.99005026
0.568884471,-4.04508497,-2.01622701
0.570491489,-3.53553391,-1.99276259
0.572098507,-2.93892626,-1.92021872
0.573705526,-2.2699525,-1.80039431
0.575312544,-1.54508497,-1.63623819
0.576919562,-0.782172325,-1.43179264
0.578526581,1.33900974e-12,-1.19209217
0.580133599,0.782172325,-0.923037581
0.581740617,1.54508497,-0.631254167
0.583347635,2.2699525,-0.323927481
0.584954654,2.93892626,-0.00862507541
0.586561672,3.53553391,0.306889574
0.58816869,4.04508497,0.614846805
0.589775709,4.45503262,0.907664832
0.591382727,4.75528258,1.17813196
0.592989745,4.9384417,1.41958935
0.594596763,5.0,1.62609282
0.596203782,4.9384417,1.79255694
0.5978108,4.75528258,1.91488119
0.599417818,4.45503262,1.99005358
0.601024836,4.04508497,2.01622547
0.602631855,3.53553391,1.99275148
0.604238873,2.93892626,1.92020805
0.605845891,2.2699525,1.80038311
0.60745291,1.54508497,1.63622654
0.609059928,0.782172325,1.43178117
0.610666946,-1.03641677e-12,1.19208075
0.612273964,-0.782172325,0.92302676
0.613880983,-1.54508497,0.631245291
0.615488001,-2.2699525,0.323920716
0.617095019,-2.93892626,0.00861901949
0.618702038,-3.53553391,-0.306893971
0.620309056,-4.04508497,-0.614850828
0.621916074,-4.45503262,-0.907667457
0.623523092,-4.75528258,-1.17813405
0.625130111,-4.9384417,-1.41959141
0.626737129,-5.0,-1.62609346
0.628344147,-4.9384417,-1.79255568
0.629951165,-4.75528258,-1.91487954
0.631558184,-4.45503262,-1.99005434
0.633165202,-4.04508497,-2.01622531
0.63477222,-3.53553391,-1.99275044
0.636379239,-2.93892626,-1.92020727
0.637986257,-2.2699525,-1.80038202
0.639593275,-1.54508497,-1.63622597
0.641200293,-0.782172325,-1.4317805
0.642807312,-4.77732003e-14,-1.19208122
