TIME,Addition_2.s_out.signal[1],SensorVoltage_1.v
0.0,0.0,0.0
0.00591122353,0.782172325,0.120721437
0.0118224471,1.54508497,0.386340504
0.0177336706,2.2699525,0.709682689
0.0236448941,2.93892626,1.04611208
0.0295561177,3.53553391,1.37068458
0.0354673412,4.04508497,1.66783354
0.0413785647,4.45503262,1.92678398
0.0472897883,4.75528258,2.13959853
0.0532010118,4.9384417,2.30032121
0.0591122353,5.0,2.40467398
0.0650234588,4.9384417,2.44993996
0.0709346824,4.75528258,2.4349355
0.0768459059,4.45503262,2.35999839
0.0827571294,4.04508497,2.22696226
0.088668353,3.53553391,2.03909614
0.0945795765,2.93892626,1.80102114
0.1004908,2.2699525,1.51860004
0.106402024,1.54508497,1.19878891
0.112313247,0.782172325,0.849459671
0.118224471,-1.6081428700000002e-15,0.479212564
0.124135694,-0.782172325,0.0971662426
0.130046918,-1.54508497,-0.287272247
0.135958141,-2.2699525,-0.664637621
0.141869365,-2.93892626,-1.02563829
0.147780588,-3.53553391,-1.36138237
0.153691812,-4.04508497,-1.6636041
0.159603035,-4.45503262,-1.92486275
0.165514259,-4.75528258,-2.13872604
0.171425482,-4.9384417,-2.29992598
0.177336706,-5.0,-2.40449419
0.183247929,-4.9384417,-2.44985594
0.189159153,-4.75528258,-2.43489452
0.195070377,-4.45503262,-2.35997773
0.2009816,-4.04508497,-2.22695001
0.206892824,-3.53553391,-2.03908749
0.212804047,-2.93892626,-1.80101526
0.218715271,-2.2699525,-1.51859705
0.224626494,-1.54508497,-1.19878631
0.230537718,-0.782172325,-0.849457186
0.236448941,-2.78699589e-14,-0.479211153
0.242360165,0.782172325,-0.0971656833
0.248271388,1.54508497,0.287272931
0.254182612,2.2699525,0.6646369
0.260093835,2.93892626,1.02563576
0.266005059,3.53553391,1.36138025
0.271916282,4.04508497,1.66360311
0.277827506,4.45503262,1.92486283
0.28373873,4.75528258,2.13872591
0.289649953,4.9384417,2.29992581
0.295561177,5.0,2.40449493
0.3014724,4.9384417,2.44985663
0.307383624,4.75528258,2.43489527
0.313294847,4.45503262,2.35998042
0.319206071,4.04508497,2.22695196
0.325117294,3.53553391,2.03908893
0.331028518,2.93892626,1.80101689
0.336939741,2.2699525,1.51859848
0.342850965,1.54508497,1.1987871
0.348762188,0.782172325,0.849457753
0.354673412,6.40093989e-14,0.479212036
0.360584635,-0.782172325,0.0971662571
0.366495859,-1.54508497,-0.287271985
0.372407082,-2.2699525,-0.664637532
0.378318306,-2.93892626,-1.02563667
0.38422953,-3.53553391,-1.36138186
0.390140753,-4.04508497,-1.6636065
0.396051977,-4.45503262,-1.92486693
0.4019632,-4.75528258,-2.13873319
0.407874424,-4.9384417,-2.29993087
0.413785647,-5.0,-2.4045016
0.419696871,-4.9384417,-2.4498546
0.425608094,-4.75528258,-2.43489587
0.431519318,-4.45503262,-2.35998904
0.437430541,-4.04508497,-2.22695737
0.443341765,-3.53553391,-2.03909358
0.449252988,-2.93892626,-1.80102243
0.455164212,-2.2699525,-1.51860347
0.461075435,-1.54508497,-1.19879149
0.466986659,-0.782172325,-0.849464274
0.472897883,-9.12670547e-14,-0.479215332
0.478809106,0.782172325,-0.0971683153
0.48472033,1.54508497,0.287271109
0.490631553,2.2699525,0.664637063
0.496542777,2.93892626,1.02563717
0.502454,3.53553391,1.36138163
0.508365224,4.04508497,1.66360544
0.514276447,4.45503262,1.92486553
0.520187671,4.75528258,2.13872879
0.526098894,4.9384417,2.2999302
0.532010118,5.0,2.40449952
0.537921341,4.9384417,2.44985533
0.543832565,4.75528258,2.43489571
0.549743788,4.45503262,2.35998214
0.555655012,4.04508497,2.22695345
0.561566236,3.53553391,2.03909345
0.567477459,2.93892626,1.80102453
0.573388683,2.2699525,1.51860357
0.579299906,1.54508497,1.19879195
0.58521113,0.782172325,0.849462023
0.591122353,1.1852471e-13,0.479215032
0.597033577,-0.782172325,0.0971685205
0.6029448,-1.54508497,-0.287270911
0.608856024,-2.2699525,-0.664636234
0.614767247,-2.93892626,-1.02563604
0.620678471,-3.53553391,-1.36138075
0.626589694,-4.04508497,-1.66360325
0.632500918,-4.45503262,-1.92486231
0.638412141,-4.75528258,-2.13872507
0.644323365,-4.9384417,-2.2999253
0.650234588,-5.0,-2.40449386
0.656145812,-4.9384417,-2.44985617
0.662057036,-4.75528258,-2.4348968
0.667968259,-4.45503262,-2.35998172
0.673879483,-4.04508497,-2.22695536
0.679790706,-3.53553391,-2.03909345
0.68570193,-2.93892626,-1.80102359
0.691613153,-2.2699525,-1.51860277
0.697524377,-1.54508497,-1.19879041
0.7034356,-0.782172325,-0.849460451
0.709346824,-1.45782366e-13,-0.479214006
0.715258047,0.782172325,-0.0971674888
0.721169271,1.54508497,0.287271557
0.727080494,2.2699525,0.664637865
0.732991718,2.93892626,1.02563721
0.738902941,3.53553391,1.36138107
0.744814165,4.04508497,1.66360369
0.750725389,4.45503262,1.92486258
0.756636612,4.75528258,2.13872509
0.762547836,4.9384417,2.29992561
0.768459059,5.0,2.4044969
0.774370283,4.9384417,2.44986161
0.780281506,4.75528258,2.43490321
0.78619273,4.45503262,2.35998839
0.792103953,4.04508497,2.22695789
0.798015177,3.53553391,2.03909321
0.8039264,2.93892626,1.80101709
0.809837624,2.2699525,1.51859963
0.815748847,1.54508497,1.19878802
0.821660071,0.782172325,0.849457907
0.827571294,1.81921806e-13,0.479211023
0.833482518,-0.782172325,0.0971654255
0.839393741,-1.54508497,-0.287272466
0.845304965,-2.2699525,-0.664637821
0.851216189,-2.93892626,-1.02563684
0.857127412,-3.53553391,-1.36138309
0.863038636,-4.04508497,-1.66360881
0.868949859,-4.45503262,-1.92486666
0.874861083,-4.75528258,-2.13873162
0.880772306,-4.9384417,-2.29992882
0.88668353,-5.0,-2.40449578
0.892594753,-4.9384417,-2.44985827
0.898505977,-4.75528258,-2.43489483
0.9044172,-4.45503262,-2.35997759
0.910328424,-4.04508497,-2.22695054
0.916239647,-3.53553391,-2.03908785
0.922150871,-2.93892626,-1.80101595
0.928062094,-2.2699525,-1.51859729
0.933973318,-1.54508497,-1.19878746
0.939884542,-0.782172325,-0.8494591
0.945795765,-2.18061246e-13,-0.479213573
0.951706989,0.782172325,-0.0971675962
0.957618212,1.54508497,0.287271362
0.963529436,2.2699525,0.664637147
0.969440659,2.93892626,1.02563764
0.975351883,3.53553391,1.36137459
0.981263106,4.04508497,1.66360319
0.98717433,4.45503262,1.92486539
0.993085553,4.75528258,2.13872977
0.998996777,4.9384417,2.29993358
1.004908,5.0,2.40449962
1.01081922,4.9384417,2.44985958
1.01673045,4.75528258,2.4348955
1.02264167,4.45503262,2.35997874
1.02855289,4.04508497,2.22695148
1.03446412,3.53553391,2.03908817
1.04037534,2.93892626,1.80101819
1.04628657,2.2699525,1.51859875
1.05219779,1.54508497,1.19878708
1.05810901,0.782172325,0.849456619
1.06402024,2.36437118e-13,0.47921166
1.06993146,-0.782172325,0.097166205
1.07584268,-1.54508497,-0.287272071
1.08175391,-2.2699525,-0.664636949
1.08766513,-2.93892626,-1.02563657
1.09357635,-3.53553391,-1.36138142
1.09948758,-4.04508497,-1.66360436
1.1053988,-4.45503262,-1.92486257
1.11131002,-4.75528258,-2.13872555
1.11722125,-4.9384417,-2.2999276
1.12313247,-5.0,-2.40449702
1.12904369,-4.9384417,-2.44985793
1.13495492,-4.75528258,-2.4348943
1.14086614,-4.45503262,-2.35997647
1.14677737,-4.04508497,-2.2269496
1.15268859,-3.53553391,-2.03908681
1.15859981,-2.93892626,-1.80101433
1.16451104,-2.2699525,-1.51859697
1.17042226,-1.54508497,-1.19878609
1.17633348,-0.782172325,-0.849456865
1.18224471,-2.72576558e-13,-0.479211405
1.18815593,0.782172325,-0.0971659513
1.19406715,1.54508497,0.287272599
1.19997838,2.2699525,0.664637109
1.2058896,2.93892626,1.02563584
1.21180082,3.53553391,1.36138035
1.21771205,4.04508497,1.66360311
1.22362327,4.45503262,1.92486237
1.22953449,4.75528258,2.13872509
1.23544572,4.9384417,2.2999255
1.24135694,5.0,2.40449395
1.24726817,4.9384417,2.44985577
1.25317939,4.75528258,2.43489413
1.25909061,4.45503262,2.35997729
1.26500184,4.04508497,2.22694995
1.27091306,3.53553391,2.03908738
1.27682428,2.93892626,1.80101517
1.28273551,2.2699525,1.51859696
1.28864673,1.54508497,1.19878627
1.29455795,0.782172325,0.849456943
1.30046918,3.08715998e-13,0.479210785
1.3063804,-0.782172325,0.097165457
1.31229162,-1.54508497,-0.287272498
1.31820285,-2.2699525,-0.664637123
1.32411407,-2.93892626,-1.0256372
1.33002529,-3.53553391,-1.36138094
1.33593652,-4.04508497,-1.66360352
1.34184774,-4.45503262,-1.92486236
1.34775897,-4.75528258,-2.13872502
1.35367019,-4.9384417,-2.2999256
1.35958141,-5.0,-2.40449454
1.36549264,-4.9384417,-2.44985669
1.37140386,-4.75528258,-2.43489458
1.37731508,-4.45503262,-2.35997744
1.38322631,-4.04508497,-2.22694987
1.38913753,-3.53553391,-2.03908735
1.39504875,-2.93892626,-1.8010163
1.40095998,-2.2699525,-1.51859803
1.4068712,-1.54508497,-1.19878672
1.41278242,-0.782172325,-0.849457266
1.41869365,-3.27091869e-13,-0.479212973
1.42460487,0.782172325,-0.0971675698
1.43051609,1.54508497,0.287271425
1.43642732,2.2699525,0.664637036
1.44233854,2.93892626,1.02563632
1.44824977,3.53553391,1.36138059
1.45416099,4.04508497,1.66360287
1.46007221,4.45503262,1.92486363
1.46598344,4.75528258,2.13872867
1.47189466,4.9384417,2.29992794
1.47780588,5.0,2.40449523
1.48371711,4.9384417,2.4498564
1.48962833,4.75528258,2.43489429
1.49553955,4.45503262,2.35998196
1.50145078,4.04508497,2.22695314
1.507362,3.53553391,2.03908904
1.51327322,2.93892626,1.80101888
1.51918445,2.2699525,1.5186009
1.52509567,1.54508497,1.19878835
1.53100689,0.782172325,0.849458041
1.53691812,3.80994878e-13,0.47921165
1.54282934,-0.782172325,0.0971665419
1.54874057,-1.54508497,-0.287271977
1.55465179,-2.2699525,-0.664637326
1.56056301,-2.93892626,-1.02563658
1.56647424,-3.53553391,-1.36138072
1.57238546,-4.04508497,-1.66360321
1.57829668,-4.45503262,-1.9248627
1.58420791,-4.75528258,-2.13872533
1.59011913,-4.9384417,-2.29992633
1.59603035,-5.0,-2.40449576
1.60194158,-4.9384417,-2.44985658
1.6078528,-4.75528258,-2.43489507
1.61376402,-4.45503262,-2.35997764
1.61967525,-4.04508497,-2.22695015
1.62558647,-3.53553391,-2.03908783
1.63149769,-2.93892626,-1.80101639
1.63740892,-2.2699525,-1.5185977
1.64332014,-1.54508497,-1.19878646
1.64923137,-0.782172325,-0.84945723
1.65514259,-3.99370749e-13,-0.479212561
1.66105381,0.782172325,-0.097167476
1.66696504,1.54508497,0.287271548
1.67287626,2.2699525,0.664637095
1.67878748,2.93892626,1.02563593
1.68469871,3.53553391,1.36138029
1.69060993,4.04508497,1.6636041
1.69652115,4.45503262,1.92486521
1.70243238,4.75528258,2.13872694
1.7083436,4.9384417,2.29992537
1.71425482,5.0,2.40449582
1.72016605,4.9384417,2.44985656
1.72607727,4.75528258,2.43489526
1.73198849,4.45503262,2.35997798
1.73789972,4.04508497,2.22695022
1.74381094,3.53553391,2.03908747
1.74972217,2.93892626,1.80101627
1.75563339,2.2699525,1.51859801
1.76154461,1.54508497,1.19878622
1.76745584,0.782172325,0.849458453
1.77336706,4.17746621e-13,0.479213737
1.77927828,-0.782172325,0.0971675009
1.78518951,-1.54508497,-0.287271586
1.79110073,-2.2699525,-0.664637164
1.79701195,-2.93892626,-1.02563646
1.80292318,-3.53553391,-1.3613809
1.8088344,-4.04508497,-1.66360394
1.81474562,-4.45503262,-1.92486375
1.82065685,-4.75528258,-2.13872741
1.82656807,-4.9384417,-2.29992796
1.83247929,-5.0,-2.40449538
1.83839052,-4.9384417,-2.44985582
1.84430174,-4.75528258,-2.43489435
1.85021297,-4.45503262,-2.35997735
1.85612419,-4.04508497,-2.22694997
1.86203541,-3.53553391,-2.0390873
1.86794664,-2.93892626,-1.80101509
1.87385786,-2.2699525,-1.51859663
1.87976908,-1.54508497,-1.19878715
1.88568031,-0.782172325,-0.84945693
1.89159153,-4.71649629e-13,-0.47921137
1.89750275,0.782172325,-0.0971661067
1.90341398,1.54508497,0.287272055
1.9093252,2.2699525,0.664636576
1.91523642,2.93892626,1.02563581
1.92114765,3.53553391,1.36138081
1.92705887,4.04508497,1.66360404
1.93297009,4.45503262,1.92486517
1.93888132,4.75528258,2.13872702
1.94479254,4.9384417,2.29992616
1.95070377,5.0,2.40449524
1.95661499,4.9384417,2.44985768
1.96252621,4.75528258,2.43489465
1.96843744,4.45503262,2.35997725
1.97434866,4.04508497,2.22694956
1.98025988,3.53553391,2.0390866
1.98617111,2.93892626,1.80101566
1.99208233,2.2699525,1.51859762
1.99799355,1.54508497,1.19878655
2.00390478,0.782172325,0.849457389
2.009816,4.90025501e-13,0.479211624
2.01572722,-0.782172325,0.0971659111
2.02163845,-1.54508497,-0.287272385
2.02754967,-2.2699525,-0.664636925
2.03346089,-2.93892626,-1.02563584
2.03937212,-3.53553391,-1.36138147
2.04528334,-4.04508497,-1.66360675
2.05119457,-4.45503262,-1.92486399
2.05710579,-4.75528258,-2.13872642
2.06301701,-4.9384417,-2.29992595
2.06892824,-5.0,-2.4044951
2.07483946,-4.9384417,-2.44985701
2.08075068,-4.75528258,-2.43489475
2.08666191,-4.45503262,-2.35997757
2.09257313,-4.04508497,-2.22694993
2.09848435,-3.53553391,-2.03908774
2.10439558,-2.93892626,-1.80101565
2.1103068,-2.2699525,-1.51859574
2.11621802,-1.54508497,-1.1987856
2.12212925,-0.782172325,-0.84945657
2.12804047,-5.43928509e-13,-0.479210646
2.13395169,0.782172325,-0.0971656367
2.13986292,1.54508497,0.287272246
2.14577414,2.2699525,0.664637032
2.15168537,2.93892626,1.02563612
2.15759659,3.53553391,1.36138014
2.16350781,4.04508497,1.66360298
2.16941904,4.45503262,1.92486201
2.17533026,4.75528258,2.13872479
2.18124148,4.9384417,2.29992541
2.18715271,5.0,2.40449405
2.19306393,4.9384417,2.44985631
2.19897515,4.75528258,2.4348949
2.20488638,4.45503262,2.35997727
2.2107976,4.04508497,2.22695013
2.21670882,3.53553391,2.03908747
2.22262005,2.93892626,1.8010162
2.22853127,2.2699525,1.51860022
2.23444249,1.54508497,1.19878946
2.24035372,0.782172325,0.849460462
2.24626494,5.62304381e-13,0.479213896
2.25217617,-0.782172325,0.097167703
2.25808739,-1.54508497,-0.287271155
2.26399861,-2.2699525,-0.664636941
2.26990984,-2.93892626,-1.02563681
2.27582106,-3.53553391,-1.36138226
2.28173228,-4.04508497,-1.66360519
2.28764351,-4.45503262,-1.924867
2.29355473,-4.75528258,-2.13872858
2.29946595,-4.9384417,-2.29992726
2.30537718,-5.0,-2.4044948
2.3112884,-4.9384417,-2.44985621
2.31719962,-4.75528258,-2.43489742
2.32311085,-4.45503262,-2.35998975
2.32902207,-4.04508497,-2.22696417
2.33493329,-3.53553391,-2.03909662
2.34084452,-2.93892626,-1.80102446
2.34675574,-2.2699525,-1.51860373
2.35266697,-1.54508497,-1.19879229
2.35857819,-0.782172325,-0.849460736
2.36448941,-5.80680252e-13,-0.479213968
