TIME,Addition_2.s_out.signal[1],SensorVoltage_1.v
0.0,0.0,0.0
0.0217437251,0.782172325,0.263980371
0.0434874501,1.54508497,0.642245927
0.0652311752,2.2699525,1.01134381
0.0869749003,2.93892626,1.35590162
0.108718625,3.53553391,1.66709473
0.13046235,4.04508497,1.93723993
0.152206075,4.45503262,2.15968317
0.173949801,4.75528258,2.32894771
0.195693526,4.9384417,2.44086702
0.217437251,5.0,2.49268377
0.239180976,4.9384417,2.48312072
0.260924701,4.75528258,2.41241677
0.282668426,4.45503262,2.28231006
0.304412151,4.04508497,2.09600758
0.326155876,3.53553391,1.85809324
0.347899601,2.93892626,1.57442524
0.369643326,2.2699525,1.25198998
0.391387051,1.54508497,0.898726548
0.413130776,0.782172325,0.523334435
0.434874501,1.17145334e-14,0.135056381
0.456618226,-0.782172325,-0.256548135
0.478361951,-1.54508497,-0.641835846
0.500105677,-2.2699525,-1.01131876
0.521849402,-2.93892626,-1.35590016
0.543593127,-3.53553391,-1.66709436
0.565336852,-4.04508497,-1.93723988
0.587080577,-4.45503262,-2.15968436
0.608824302,-4.75528258,-2.32894974
0.630568027,-4.9384417,-2.4408671
0.652311752,-5.0,-2.49268377
0.674055477,-4.9384417,-2.48312267
0.695799202,-4.75528258,-2.41241759
0.717542927,-4.45503262,-2.28231063
0.739286652,-4.04508497,-2.09600726
0.761030377,-3.53553391,-1.85809257
0.782774102,-2.93892626,-1.57442487
0.804517827,-2.2699525,-1.25198972
0.826261552,-1.54508497,-0.898727
0.848005278,-0.782172325,-0.523334531
0.869749003,-3.2310851e-14,-0.135056252
0.891492728,0.782172325,0.256548113
0.913236453,1.54508497,0.641836595
0.934980178,2.2699525,1.01131902
0.956723903,2.93892626,1.35590003
0.978467628,3.53553391,1.66709457
1.00021135,4.04508497,1.93723873
1.02195508,4.45503262,2.15968219
1.0436988,4.75528258,2.32894749
1.06544253,4.9384417,2.44086614
1.08718625,5.0,2.49268247
1.10892998,4.9384417,2.48312102
1.1306737,4.75528258,2.41241662
1.15241743,4.45503262,2.28231043
1.17416115,4.04508497,2.09600643
1.19590488,3.53553391,1.85809179
1.2176486,2.93892626,1.57442442
1.23939233,2.2699525,1.25198995
1.26113605,1.54508497,0.898727086
1.28287978,0.782172325,0.523334702
1.3046235,5.51276147e-14,0.135055602
1.32636723,-0.782172325,-0.256548092
1.34811095,-1.54508497,-0.641835414
1.36985468,-2.2699525,-1.01131918
1.3915984,-2.93892626,-1.35590049
1.41334213,-3.53553391,-1.66709463
1.43508585,-4.04508497,-1.93723931
1.45682958,-4.45503262,-2.15968343
1.4785733,-4.75528258,-2.32894794
1.50031703,-4.9384417,-2.44086586
1.52206075,-5.0,-2.49268251
1.54380448,-4.9384417,-2.48312089
1.5655482,-4.75528258,-2.41241654
1.58729193,-4.45503262,-2.28231054
1.60903565,-4.04508497,-2.09600643
1.63077938,-3.53553391,-1.85809234
1.6525231,-2.93892626,-1.57442671
1.67426683,-2.2699525,-1.25199071
1.69601056,-1.54508497,-0.898728346
1.71775428,-0.782172325,-0.523335087
1.73949801,-7.35034863e-14,-0.135055868
1.76124173,0.782172325,0.256548172
1.78298546,1.54508497,0.641835703
1.80472918,2.2699525,1.01131872
1.82647291,2.93892626,1.35590061
1.84821663,3.53553391,1.66709619
1.86996036,4.04508497,1.93724002
1.89170408,4.45503262,2.15968238
1.91344781,4.75528258,2.32894738
1.93519153,4.9384417,2.44086607
1.95693526,5.0,2.49268273
1.97867898,4.9384417,2.48312104
2.00042271,4.75528258,2.41241651
2.02216643,4.45503262,2.28231066
2.04391016,4.04508497,2.0960064
2.06565388,3.53553391,1.85809188
2.08739761,2.93892626,1.57442446
2.10914133,2.2699525,1.25198991
2.13088506,1.54508497,0.898727067
2.15262878,0.782172325,0.523334644
2.17437251,3.85886527e-14,0.135056316
2.19611623,-0.782172325,-0.256548072
2.21785996,-1.54508497,-0.641835433
2.23960368,-2.2699525,-1.01131843
2.26134741,-2.93892626,-1.35589941
2.28309113,-3.53553391,-1.66709383
2.30483486,-4.04508497,-1.93723873
2.32657858,-4.45503262,-2.15968231
2.34832231,-4.75528258,-2.32894768
2.37006603,-4.9384417,-2.44086624
2.39180976,-5.0,-2.49268292
2.41355348,-4.9384417,-2.48312078
2.43529721,-4.75528258,-2.41241655
2.45704093,-4.45503262,-2.28231058
2.47878466,-4.04508497,-2.09600652
2.50052838,-3.53553391,-1.85809178
2.52227211,-2.93892626,-1.57442438
2.54401583,-2.2699525,-1.25199092
2.56575956,-1.54508497,-0.898728577
2.58750328,-0.782172325,-0.523335966
2.60924701,1.02907591e-13,-0.135056443
2.63099073,0.782172325,0.256548178
2.65273446,1.54508497,0.641835659
2.67447818,2.2699525,1.01131863
2.69622191,2.93892626,1.3559007
2.71796563,3.53553391,1.66709488
2.73970936,4.04508497,1.93723957
2.76145308,4.45503262,2.15968333
2.78319681,4.75528258,2.32894748
2.80494053,4.9384417,2.44086805
2.82668426,5.0,2.49268739
2.84842798,4.9384417,2.48312537
2.87017171,4.75528258,2.41241904
2.89191543,4.45503262,2.28231243
2.91365916,4.04508497,2.09601445
2.93540288,3.53553391,1.85809251
2.95714661,2.93892626,1.5744254
2.97889033,2.2699525,1.25199011
3.00063406,1.54508497,0.89872712
3.02237778,0.782172325,0.523335161
3.04412151,-2.44403835e-13,0.135056345
3.06586523,-0.782172325,-0.256548188
3.08760896,-1.54508497,-0.641835777
3.10935268,-2.2699525,-1.01131908
3.13109641,-2.93892626,-1.35589963
3.15284013,-3.53553391,-1.6670937
3.17458386,-4.04508497,-1.93723884
3.19632758,-4.45503262,-2.15968228
3.21807131,-4.75528258,-2.32894741
3.23981503,-4.9384417,-2.44086638
3.26155876,-5.0,-2.49268271
3.28330248,-4.9384417,-2.48312074
3.30504621,-4.75528258,-2.41241657
3.32678994,-4.45503262,-2.28231059
3.34853366,-4.04508497,-2.09600644
3.37027739,-3.53553391,-1.85809176
3.39202111,-2.93892626,-1.57442458
3.41376484,-2.2699525,-1.25198918
3.43550856,-1.54508497,-0.89872707
3.45725229,-0.782172325,-0.523334631
3.47899601,3.68136511e-13,-0.135056447
3.50073974,0.782172325,0.256548178
3.52248346,1.54508497,0.641835725
3.54422719,2.2699525,1.01131859
3.56597091,2.93892626,1.35589962
3.58771464,3.53553391,1.66709387
3.60945836,4.04508497,1.93723867
3.63120209,4.45503262,2.15968252
3.65294581,4.75528258,2.32894755
3.67468954,4.9384417,2.44086617
3.69643326,5.0,2.49268254
3.71817699,4.9384417,2.48312089
3.73992071,4.75528258,2.41241658
3.76166444,4.45503262,2.28231141
3.78340816,4.04508497,2.09600654
3.80515189,3.53553391,1.85809176
3.82689561,2.93892626,1.57442468
3.84863934,2.2699525,1.25198998
3.87038306,1.54508497,0.89872645
3.89212679,0.782172325,0.523334569
3.91387051,-5.09632755e-13,0.135056139
3.93561424,-0.782172325,-0.256548126
3.95735796,-1.54508497,-0.641835325
3.97910169,-2.2699525,-1.01131862
4.00084541,-2.93892626,-1.3558996
4.02258914,-3.53553391,-1.66709337
4.04433286,-4.04508497,-1.9372383
4.06607659,-4.45503262,-2.15968224
4.08782031,-4.75528258,-2.32894723
4.10956404,-4.9384417,-2.44086604
4.13130776,-5.0,-2.49268252
4.15305149,-4.9384417,-2.48312088
4.17479521,-4.75528258,-2.41241658
4.19653894,-4.45503262,-2.28231048
4.21828266,-4.04508497,-2.09600632
4.24002639,-3.53553391,-1.85809148
4.26177011,-2.93892626,-1.57442461
4.28351384,-2.2699525,-1.25199003
4.30525756,-1.54508497,-0.898727761
4.32700129,-0.782172325,-0.523334956
4.34874501,6.3336543e-13,-0.135056268
4.37048874,0.782172325,0.256548151
4.39223246,1.54508497,0.641835852
4.41397619,2.2699525,1.0113192
4.43571991,2.93892626,1.35589989
4.45746364,3.53553391,1.66709461
4.47920736,4.04508497,1.93723948
4.50095109,4.45503262,2.15968416
4.52269481,4.75528258,2.32894958
4.54443854,4.9384417,2.44086708
4.56618226,5.0,2.49268414
4.58792599,4.9384417,2.48312237
4.60966971,4.75528258,2.41242081
4.63141344,4.45503262,2.28231083
4.65315716,4.04508497,2.09600645
4.67490089,3.53553391,1.85809185
4.69664461,2.93892626,1.57442524
4.71838834,2.2699525,1.25199102
4.74013206,1.54508497,0.898727833
4.76187579,0.782172325,0.523335586
4.78361951,-7.57098106e-13,0.135056374
4.80536324,-0.782172325,-0.256548151
4.82710696,-1.54508497,-0.641835501
4.84885069,-2.2699525,-1.01131877
4.87059441,-2.93892626,-1.35590057
4.89233814,-3.53553391,-1.66709611
4.91408186,-4.04508497,-1.93723872
4.93582559,-4.45503262,-2.15968206
4.95756931,-4.75528258,-2.32894732
4.97931304,-4.9384417,-2.44086628
5.00105677,-5.0,-2.49268255
5.02280049,-4.9384417,-2.48312087
5.04454422,-4.75528258,-2.41241653
5.06628794,-4.45503262,-2.28231035
5.08803167,-4.04508497,-2.09600649
5.10977539,-3.53553391,-1.85809236
5.13151912,-2.93892626,-1.57442475
5.15326284,-2.2699525,-1.25198943
5.17500657,-1.54508497,-0.898726264
5.19675029,-0.782172325,-0.52333462
5.21849402,9.16357918e-13,-0.135056052
5.24023774,0.782172325,0.256548028
5.26198147,1.54508497,0.641835689
5.28372519,2.2699525,1.01131878
5.30546892,2.93892626,1.35589941
5.32721264,3.53553391,1.66709392
5.34895637,4.04508497,1.9372387
5.37070009,4.45503262,2.15968225
5.39244382,4.75528258,2.32894746
5.41418754,4.9384417,2.44086579
5.43593127,5.0,2.49268268
5.45767499,4.9384417,2.4831209
5.47941872,4.75528258,2.41242065
5.50116244,4.45503262,2.28231572
5.52290617,4.04508497,2.09600741
5.54464989,3.53553391,1.85809274
5.56639362,2.93892626,1.57442661
5.58813734,2.2699525,1.25199018
5.60988107,1.54508497,0.898727858
5.63162479,0.782172325,0.523335171
5.65336852,-1.04009059e-12,0.135056004
5.67511224,-0.782172325,-0.256548195
5.69685597,-1.54508497,-0.641835597
5.71859969,-2.2699525,-1.01131909
5.74034342,-2.93892626,-1.35589977
5.76208714,-3.53553391,-1.66709349
5.78383087,-4.04508497,-1.93723883
5.80557459,-4.45503262,-2.15968234
5.82731832,-4.75528258,-2.32895016
5.84906204,-4.9384417,-2.44086669
5.87080577,-5.0,-2.49268261
5.89254949,-4.9384417,-2.48312036
5.91429322,-4.75528258,-2.41241623
5.93603694,-4.45503262,-2.2823105
5.95778067,-4.04508497,-2.09600647
5.97952439,-3.53553391,-1.85809181
6.00126812,-2.93892626,-1.57442455
6.02301184,-2.2699525,-1.25198997
6.04475557,-1.54508497,-0.898727239
6.06649929,-0.782172325,-0.523334726
6.08824302,1.19935041e-12,-0.13505588
6.10998674,0.782172325,0.2565482
6.13173047,1.54508497,0.641835509
6.15347419,2.2699525,1.0113184
6.17521792,2.93892626,1.35589966
6.19696164,3.53553391,1.66709438
6.21870537,4.04508497,1.93724051
6.24044909,4.45503262,2.15968454
6.26219282,4.75528258,2.32894845
6.28393654,4.9384417,2.44086712
6.30568027,5.0,2.49268391
6.32742399,4.9384417,2.4831208
6.34916772,4.75528258,2.41241697
6.37091144,4.45503262,2.28231033
6.39265517,4.04508497,2.09600684
6.41439889,3.53553391,1.85809143
6.43614262,2.93892626,1.57442444
6.45788634,2.2699525,1.25198992
6.47963007,1.54508497,0.89872705
6.50137379,0.782172325,0.52333459
6.52311752,-1.32308308e-12,0.135055953
6.54486124,-0.782172325,-0.256548166
6.56660497,-1.54508497,-0.641835809
6.58834869,-2.2699525,-1.01131876
6.61009242,-2.93892626,-1.35590088
6.63183614,-3.53553391,-1.66709392
6.65357987,-4.04508497,-1.937239
6.6753236,-4.45503262,-2.15968234
6.69706732,-4.75528258,-2.32894721
6.71881105,-4.9384417,-2.44086625
6.74055477,-5.0,-2.49268236
6.7622985,-4.9384417,-2.4831207
6.78404222,-4.75528258,-2.41241646
6.80578595,-4.45503262,-2.28231069
6.82752967,-4.04508497,-2.09600641
6.8492734,-3.53553391,-1.85809283
6.87101712,-2.93892626,-1.57442472
6.89276085,-2.2699525,-1.25198991
6.91450457,-1.54508497,-0.898727773
6.9362483,-0.782172325,-0.523335289
6.95799202,1.44681576e-12,-0.135056406
6.97973575,0.782172325,0.256548052
7.00147947,1.54508497,0.641835559
7.0232232,2.2699525,1.01131877
7.04496692,2.93892626,1.35590055
7.06671065,3.53553391,1.6670962
7.08845437,4.04508497,1.93723872
7.1101981,4.45503262,2.15968202
7.13194182,4.75528258,2.3289483
7.15368555,4.9384417,2.44086842
7.17542927,5.0,2.49268485
7.197173,4.9384417,2.48312213
7.21891672,4.75528258,2.41242243
7.24066045,4.45503262,2.2823141
7.26240417,4.04508497,2.09600857
7.2841479,3.53553391,1.85809379
7.30589162,2.93892626,1.57442529
7.32763535,2.2699525,1.25199003
7.34937907,1.54508497,0.898727157
7.3711228,0.782172325,0.523334776
7.39286652,-1.60607557e-12,0.135056086
7.41461025,-0.782172325,-0.256548246
7.43635397,-1.54508497,-0.6418356
7.4580977,-2.2699525,-1.0113188
7.47984142,-2.93892626,-1.3558995
7.50158515,-3.53553391,-1.66709369
7.52332887,-4.04508497,-1.93723898
7.5450726,-4.45503262,-2.15968236
7.56681632,-4.75528258,-2.32894735
7.58856005,-4.9384417,-2.44086611
7.61030377,-5.0,-2.49268255
7.6320475,-4.9384417,-2.48312334
7.65379122,-4.75528258,-2.41241755
7.67553495,-4.45503262,-2.28231051
7.69727867,-4.04508497,-2.09600643
7.7190224,-3.53553391,-1.85809107
7.74076612,-2.93892626,-1.57442542
7.76250985,-2.2699525,-1.25199006
7.78425357,-1.54508497,-0.898727159
7.8059973,-0.782172325,-0.523334691
7.82774102,1.72980825e-12,-0.135056004
7.84948475,0.782172325,0.256548136
7.87122847,1.54508497,0.641835304
7.8929722,2.2699525,1.01131878
7.91471592,2.93892626,1.3558995
7.93645965,3.53553391,1.66709347
7.95820337,4.04508497,1.93723851
7.9799471,4.45503262,2.15968171
8.00169082,4.75528258,2.32894719
8.02343455,4.9384417,2.44086739
8.04517827,5.0,2.49268373
8.066922,4.9384417,2.48312181
8.08866572,4.75528258,2.41241687
8.11040945,4.45503262,2.28231049
8.13215317,4.04508497,2.09600628
8.1538969,3.53553391,1.85809392
8.17564062,2.93892626,1.57442544
8.19738435,2.2699525,1.25199101
8.21912807,1.54508497,0.898727279
8.2408718,0.782172325,0.523334742
8.26261552,-1.85354092e-12,0.135056085
8.28435925,-0.782172325,-0.256548185
8.30610298,-1.54508497,-0.641835368
8.3278467,-2.2699525,-1.01131829
8.34959043,-2.93892626,-1.35589944
8.37133415,-3.53553391,-1.66709435
8.39307788,-4.04508497,-1.9372416
8.4148216,-4.45503262,-2.15968275
8.43656533,-4.75528258,-2.3289471
8.45830905,-4.9384417,-2.44086612
8.48005278,-5.0,-2.49268238
8.5017965,-4.9384417,-2.48312104
8.52354023,-4.75528258,-2.41241663
8.54528395,-4.45503262,-2.28231052
8.56702768,-4.04508497,-2.09600645
8.5887714,-3.53553391,-1.85809172
8.61051513,-2.93892626,-1.57442467
8.63225885,-2.2699525,-1.25198999
8.65400258,-1.54508497,-0.89872716
8.6757463,-0.782172325,-0.523334329
8.69749003,-1.22460635e-14,-0.135056207
