TIME,Addition_2.s_out.signal[1],SensorVoltage_1.v
0.0,0.0,0.0
0.00255882755,0.782172325,0.0598506029
0.00511765511,1.54508497,0.214209265
0.00767648266,2.2699525,0.431529487
0.0102353102,2.93892626,0.686736928
0.0127941378,3.53553391,0.959522079
0.0153529653,4.04508497,1.23320057
0.0179117929,4.45503262,1.49394466
0.0204706204,4.75528258,1.73029605
0.023029448,4.9384417,1.93285115
0.0255882755,5.0,2.09407615
0.0281471031,4.9384417,2.20819138
0.0307059307,4.75528258,2.27109943
0.0332647582,4.45503262,2.28033595
0.0358235858,4.04508497,2.2350234
0.0383824133,3.53553391,2.1358149
0.0409412409,2.93892626,1.98482448
0.0435000684,2.2699525,1.78553545
0.046058896,1.54508497,1.54268859
0.0486177235,0.782172325,1.26214713
0.0511765511,-1.6081428700000002e-15,0.950735549
0.0537353786,-0.782172325,0.616061374
0.0562942062,-1.54508497,0.266320008
0.0588530338,-2.2699525,-0.0899047289
0.0614118613,-2.93892626,-0.44386438
0.0639706889,-3.53553391,-0.78685719
0.0665295164,-4.04508497,-1.11044716
0.069088344,-4.45503262,-1.40667547
0.0716471715,-4.75528258,-1.66825306
0.0742059991,-4.9384417,-1.88874386
0.0767648266,-5.0,-2.06272164
0.0793236542,-4.9384417,-2.18590194
0.0818824818,-4.75528258,-2.2552538
0.0844413093,-4.45503262,-2.2690729
0.0870001369,-4.04508497,-2.22701978
0.0895589644,-3.53553391,-2.130129
0.092117792,-2.93892626,-1.98078494
0.0946766195,-2.2699525,-1.78266354
0.0972354471,-1.54508497,-1.54064994
0.0997942746,-0.782172325,-1.26069938
0.102353102,-1.89881747e-14,-0.949706311
0.10491193,0.782172325,-0.615328372
0.107470757,1.54508497,-0.265798932
0.110029585,2.2699525,0.0902754044
0.112588412,2.93892626,0.44412789
0.11514724,3.53553391,0.787043832
0.117706068,4.04508497,1.11058031
0.120264895,4.45503262,1.40676983
0.122823723,4.75528258,1.66832091
0.12538255,4.9384417,1.88879359
0.127941378,5.0,2.06275492
0.130500205,4.9384417,2.1859248
0.133059033,4.75528258,2.2552697
0.13561786,4.45503262,2.26908264
0.138176688,4.04508497,2.22702343
0.140735516,3.53553391,2.13012727
0.143294343,2.93892626,1.98078058
0.145853171,2.2699525,1.78266304
0.148411998,1.54508497,1.54065054
0.150970826,0.782172325,1.26070022
0.153529653,1.83690953e-15,0.949707822
0.156088481,-0.782172325,0.615327981
0.158647308,-1.54508497,0.265797046
0.161206136,-2.2699525,-0.0902779448
0.163764964,-2.93892626,-0.444129603
0.166323791,-3.53553391,-0.787045181
0.168882619,-4.04508497,-1.11058062
0.171441446,-4.45503262,-1.40676996
0.174000274,-4.75528258,-1.66831993
0.176559101,-4.9384417,-1.88879027
0.179117929,-5.0,-2.06275234
0.181676756,-4.9384417,-2.18592257
0.184235584,-4.75528258,-2.25526816
0.186794411,-4.45503262,-2.26908186
0.189353239,-4.04508497,-2.22702262
0.191912067,-3.53553391,-2.13012684
0.194470894,-2.93892626,-1.98078036
0.197029722,-2.2699525,-1.78266028
0.199588549,-1.54508497,-1.54064777
0.202147377,-0.782172325,-1.26069846
0.204706204,5.97232767e-14,-0.949707189
0.207265032,0.782172325,-0.615328354
0.209823859,1.54508497,-0.265798895
0.212382687,2.2699525,0.0902762438
0.214941515,2.93892626,0.444128627
0.217500342,3.53553391,0.787044821
0.22005917,4.04508497,1.11058045
0.222617997,4.45503262,1.40677123
0.225176825,4.75528258,1.66831629
0.227735652,4.9384417,1.88879003
0.23029448,5.0,2.06275232
0.232853307,4.9384417,2.18592246
0.235412135,4.75528258,2.25526877
0.237970963,4.45503262,2.26908302
0.24052979,4.04508497,2.22702344
0.243088618,3.53553391,2.13012749
0.245647445,2.93892626,1.98078073
0.248206273,2.2699525,1.78266049
0.2507651,1.54508497,1.54064549
0.253323928,0.782172325,1.26069475
0.255882755,-1.12401679e-13,0.949701184
0.258441583,-0.782172325,0.615322993
0.261000411,-1.54508497,0.265793884
0.263559238,-2.2699525,-0.0902800256
0.266118066,-2.93892626,-0.44413091
0.268676893,-3.53553391,-0.787045894
0.271235721,-4.04508497,-1.11058108
0.273794548,-4.45503262,-1.40677033
0.276353376,-4.75528258,-1.66832139
0.278912203,-4.9384417,-1.88879291
0.281471031,-5.0,-2.06275421
0.284029859,-4.9384417,-2.18592443
0.286588686,-4.75528258,-2.2552687
0.289147514,-4.45503262,-2.26908136
0.291706341,-4.04508497,-2.22702256
0.294265169,-3.53553391,-2.1301266
0.296823996,-2.93892626,-1.98077999
0.299382824,-2.2699525,-1.78265969
0.301941651,-1.54508497,-1.54064484
0.304500479,-0.782172325,-1.26069616
0.307059307,1.73961865e-13,-0.949705257
0.309618134,0.782172325,-0.615328561
0.312176962,1.54508497,-0.265798959
0.314735789,2.2699525,0.0902763106
0.317294617,2.93892626,0.444128748
0.319853444,3.53553391,0.787043893
0.322412272,4.04508497,1.11058086
0.324971099,4.45503262,1.40677149
0.327529927,4.75528258,1.66832097
0.330088755,4.9384417,1.8887912
0.332647582,5.0,2.06275322
0.33520641,4.9384417,2.18592323
0.337765237,4.75528258,2.25526853
0.340324065,4.45503262,2.26908154
0.342882892,4.04508497,2.22702253
0.34544172,3.53553391,2.1301265
0.348000547,2.93892626,1.98077881
0.350559375,2.2699525,1.78265931
0.353118203,1.54508497,1.54064483
0.35567703,0.782172325,1.26069427
0.358235858,-2.26640267e-13,0.949701281
0.360794685,-0.782172325,0.615322177
0.363353513,-1.54508497,0.265790709
0.36591234,-2.2699525,-0.0902822066
0.368471168,-2.93892626,-0.444132825
0.371029995,-3.53553391,-0.787047914
0.373588823,-4.04508497,-1.11058407
0.376147651,-4.45503262,-1.40677462
0.378706478,-4.75528258,-1.66832593
0.381265306,-4.9384417,-1.88879971
0.383824133,-5.0,-2.06275933
0.386382961,-4.9384417,-2.185925
0.388941788,-4.75528258,-2.25527126
0.391500616,-4.45503262,-2.26908603
0.394059443,-4.04508497,-2.22702996
0.396618271,-3.53553391,-2.13013363
0.399177099,-2.93892626,-1.9807882
0.401735926,-2.2699525,-1.7826672
0.404294754,-1.54508497,-1.54065031
0.406853581,-0.782172325,-1.2606982
0.409412409,2.79318669e-13,-0.949703825
0.411971236,0.782172325,-0.615325196
0.414530064,1.54508497,-0.26579568
0.417088891,2.2699525,0.0902784319
0.419647719,2.93892626,0.444130483
0.422206547,3.53553391,0.787048325
0.424765374,4.04508497,1.11058329
0.427324202,4.45503262,1.40677097
0.429883029,4.75528258,1.66832213
0.432441857,4.9384417,1.88879205
0.435000684,5.0,2.06275445
0.437559512,4.9384417,2.18592386
0.440118339,4.75528258,2.25526929
0.442677167,4.45503262,2.2690821
0.445235995,4.04508497,2.22702281
0.447794822,3.53553391,2.130127
0.45035365,2.93892626,1.98078005
0.452912477,2.2699525,1.78265866
0.455471305,1.54508497,1.54064412
0.458030132,0.782172325,1.26069349
0.46058896,-3.49760639e-13,0.949700622
0.463147787,-0.782172325,0.615323006
0.465706615,-1.54508497,0.265793887
0.468265443,-2.2699525,-0.090279933
0.47082427,-2.93892626,-0.444130955
0.473383098,-3.53553391,-0.787045726
0.475941925,-4.04508497,-1.11058056
0.478500753,-4.45503262,-1.40676995
0.48105958,-4.75528258,-1.66831973
0.483618408,-4.9384417,-1.88879002
0.486177235,-5.0,-2.06275206
0.488736063,-4.9384417,-2.18592236
0.491294891,-4.75528258,-2.25526797
0.493853718,-4.45503262,-2.26908134
0.496412546,-4.04508497,-2.2270224
0.498971373,-3.53553391,-2.13012885
0.501530201,-2.93892626,-1.9807872
0.504089028,-2.2699525,-1.78266513
0.506647856,-1.54508497,-1.54064863
0.509206683,-0.782172325,-1.26069683
0.511765511,4.02439041e-13,-0.949703119
0.514324339,0.782172325,-0.615324625
0.516883166,1.54508497,-0.265794796
0.519441994,2.2699525,0.0902791928
0.522000821,2.93892626,0.444131953
0.524559649,3.53553391,0.7870482
0.527118476,4.04508497,1.11058623
0.529677304,4.45503262,1.4067754
0.532236131,4.75528258,1.66832579
0.534794959,4.9384417,1.88879634
0.537353786,5.0,2.06276039
0.539912614,4.9384417,2.18592835
0.542471442,4.75528258,2.25527255
0.545030269,4.45503262,2.26908455
0.547589097,4.04508497,2.2270303
0.550147924,3.53553391,2.13013482
0.552706752,2.93892626,1.98078846
0.555265579,2.2699525,1.78266845
0.557824407,1.54508497,1.54065107
0.560383234,0.782172325,1.26069971
0.562942062,-4.72881012e-13,0.949706379
0.56550089,-0.782172325,0.615329538
0.568059717,-1.54508497,0.265798968
0.570618545,-2.2699525,-0.0902763051
0.573177372,-2.93892626,-0.444128671
0.5757362,-3.53553391,-0.787045486
0.578295027,-4.04508497,-1.11058211
0.580853855,-4.45503262,-1.40677118
0.583412682,-4.75528258,-1.66832143
0.58597151,-4.9384417,-1.88879201
0.588530338,-5.0,-2.06275339
0.591089165,-4.9384417,-2.18592962
0.593647993,-4.75528258,-2.2552857
0.59620682,-4.45503262,-2.2691052
0.598765648,-4.04508497,-2.22704238
0.601324475,-3.53553391,-2.13014575
0.603883303,-2.93892626,-1.98080346
0.60644213,-2.2699525,-1.78267864
0.609000958,-1.54508497,-1.54066133
0.611559786,-0.782172325,-1.26070604
0.614118613,5.25559414e-13,-0.949713015
0.616677441,0.782172325,-0.615332726
0.619236268,1.54508497,-0.265802402
0.621795096,2.2699525,0.090273703
0.624353923,2.93892626,0.444127133
0.626912751,3.53553391,0.787045695
0.629471578,4.04508497,1.11058199
0.632030406,4.45503262,1.40677254
0.634589234,4.75528258,1.66832329
0.637148061,4.9384417,1.88879414
0.639706889,5.0,2.06275445
0.642265716,4.9384417,2.18592785
0.644824544,4.75528258,2.25527616
0.647383371,4.45503262,2.26909599
0.649942199,4.04508497,2.22703475
0.652501026,3.53553391,2.13013834
0.655059854,2.93892626,1.9807901
0.657618682,2.2699525,1.7826668
0.660177509,1.54508497,1.54065101
0.662736337,0.782172325,1.26069879
0.665295164,-5.78237816e-13,0.949705234
0.667853992,-0.782172325,0.615325957
0.670412819,-1.54508497,0.265795532
0.672971647,-2.2699525,-0.0902788967
0.675530474,-2.93892626,-0.444129873
0.678089302,-3.53553391,-0.787046573
0.68064813,-4.04508497,-1.11058592
0.683206957,-4.45503262,-1.40677511
0.685765785,-4.75528258,-1.66832599
0.688324612,-4.9384417,-1.88879623
0.69088344,-5.0,-2.06275692
0.693442267,-4.9384417,-2.18592609
0.696001095,-4.75528258,-2.2552701
0.698559922,-4.45503262,-2.2690829
0.70111875,-4.04508497,-2.22702344
0.703677578,-3.53553391,-2.1301274
0.706236405,-2.93892626,-1.98078026
0.708795233,-2.2699525,-1.78265921
0.71135406,-1.54508497,-1.54064414
0.713912888,-0.782172325,-1.26069376
0.716471715,6.30916218e-13,-0.949700777
0.719030543,0.782172325,-0.615322899
0.72158937,1.54508497,-0.265793476
0.724148198,2.2699525,0.0902799655
0.726707026,2.93892626,0.444131346
0.729265853,3.53553391,0.787047781
0.731824681,4.04508497,1.11058737
0.734383508,4.45503262,1.40677645
0.736942336,4.75528258,1.66832853
0.739501163,4.9384417,1.88879736
0.742059991,5.0,2.06275748
0.744618818,4.9384417,2.18592645
0.747177646,4.75528258,2.25527329
0.749736474,4.45503262,2.26908498
0.752295301,4.04508497,2.22702529
0.754854129,3.53553391,2.13012868
0.757412956,2.93892626,1.98078111
0.759971784,2.2699525,1.78265992
0.762530611,1.54508497,1.54064659
0.765089439,0.782172325,1.26069834
0.767648266,-6.8359462e-13,0.949705587
0.770207094,-0.782172325,0.615325849
0.772765922,-1.54508497,0.265795097
0.775324749,-2.2699525,-0.0902797298
0.777883577,-2.93892626,-0.444130847
0.780442404,-3.53553391,-0.787046172
0.783001232,-4.04508497,-1.11058143
0.785560059,-4.45503262,-1.40677058
0.788118887,-4.75528258,-1.66832089
0.790677714,-4.9384417,-1.88879052
0.793236542,-5.0,-2.06275292
0.79579537,-4.9384417,-2.18592171
0.798354197,-4.75528258,-2.2552677
0.800913025,-4.45503262,-2.26908072
0.803471852,-4.04508497,-2.22702155
0.80603068,-3.53553391,-2.13012603
0.808589507,-2.93892626,-1.98077969
0.811148335,-2.2699525,-1.78266005
0.813707162,-1.54508497,-1.5406453
0.81626599,-0.782172325,-1.26069469
0.818824818,7.36273022e-13,-0.94970065
0.821383645,0.782172325,-0.615322842
0.823942473,1.54508497,-0.265793858
0.8265013,2.2699525,0.0902803742
0.829060128,2.93892626,0.444131449
0.831618955,3.53553391,0.787046945
0.834177783,4.04508497,1.11058159
0.83673661,4.45503262,1.40677171
0.839295438,4.75528258,1.66832269
0.841854266,4.9384417,1.888796
0.844413093,5.0,2.06275853
0.846971921,4.9384417,2.18593143
0.849530748,4.75528258,2.2552819
0.852089576,4.45503262,2.26909318
0.854648403,4.04508497,2.22703344
0.857207231,3.53553391,2.13013687
0.859766058,2.93892626,1.98078861
0.862324886,2.2699525,1.78266885
0.864883714,1.54508497,1.54065355
0.867442541,0.782172325,1.26070217
0.870001369,-7.88951424e-13,0.949706484
0.872560196,-0.782172325,0.615326787
0.875119024,-1.54508497,0.265796759
0.877677851,-2.2699525,-0.0902781752
0.880236679,-2.93892626,-0.444129805
0.882795506,-3.53553391,-0.787045825
0.885354334,-4.04508497,-1.11058145
0.887913161,-4.45503262,-1.40677174
0.890471989,-4.75528258,-1.66832106
0.893030817,-4.9384417,-1.88879076
0.895589644,-5.0,-2.06275162
0.898148472,-4.9384417,-2.18592189
0.900707299,-4.75528258,-2.25526711
0.903266127,-4.45503262,-2.26908081
0.905824954,-4.04508497,-2.22702186
0.908383782,-3.53553391,-2.13012599
0.910942609,-2.93892626,-1.98077925
0.913501437,-2.2699525,-1.78265958
0.916060265,-1.54508497,-1.54064475
0.918619092,-0.782172325,-1.26069427
0.92117792,8.41629826e-13,-0.949701085
0.923736747,0.782172325,-0.615322861
0.926295575,1.54508497,-0.265793751
0.928854402,2.2699525,0.0902807201
0.93141323,2.93892626,0.444131977
0.933972057,3.53553391,0.787047088
0.936530885,4.04508497,1.1105825
0.939089713,4.45503262,1.40677176
0.94164854,4.75528258,1.66832116
0.944207368,4.9384417,1.88879189
0.946766195,5.0,2.06275342
0.949325023,4.9384417,2.18592534
0.95188385,4.75528258,2.25526949
0.954442678,4.45503262,2.26908238
0.957001505,4.04508497,2.22702323
0.959560333,3.53553391,2.13012719
0.962119161,2.93892626,1.98078053
0.964677988,2.2699525,1.78266052
0.967236816,1.54508497,1.54064534
0.969795643,0.782172325,1.26069463
0.972354471,-8.94308228e-13,0.949703768
0.974913298,-0.782172325,0.615327254
0.977472126,-1.54508497,0.265798097
0.980030953,-2.2699525,-0.0902766498
0.982589781,-2.93892626,-0.444128802
0.985148609,-3.53553391,-0.787044671
0.987707436,-4.04508497,-1.11058081
0.990266264,-4.45503262,-1.40677028
0.992825091,-4.75528258,-1.66832242
0.995383919,-4.9384417,-1.88879254
0.997942746,-5.0,-2.06275463
1.00050157,-4.9384417,-2.18592637
1.0030604,-4.75528258,-2.25527171
1.00561923,-4.45503262,-2.26908496
1.00817806,-4.04508497,-2.22702508
1.01073688,-3.53553391,-2.13012883
1.01329571,-2.93892626,-1.98078154
1.01585454,-2.2699525,-1.78266064
1.01841337,-1.54508497,-1.54064386
1.02097219,-0.782172325,-1.26069325
1.02353102,-1.22460635e-14,-0.949700417
