TIME,Addition_2.s_out.signal[1],SensorVoltage_1.v
0.0,0.0,0.0
0.00894324765,0.782172325,0.0966800862
0.0178864953,1.54508497,0.323560119
0.0268297429,2.2699525,0.615506064
0.0357729906,2.93892626,0.932533426
0.0447162382,3.53553391,1.24876637
0.0536594859,4.04508497,1.54646535
0.0626027335,4.45503262,1.81280345
0.0715459812,4.75528258,2.03821963
0.0804892288,4.9384417,2.21548582
0.0894324765,5.0,2.3393275
0.0983757241,4.9384417,2.40618863
0.107318972,4.75528258,2.41413185
0.116262219,4.45503262,2.36281945
0.125205467,4.04508497,2.25343561
0.134148715,3.53553391,2.08862265
0.143091962,2.93892626,1.87241097
0.15203521,2.2699525,1.61011213
0.160978458,1.54508497,1.30817602
0.169921705,0.782172325,0.974032857
0.178864953,7.273641320000001e-15,0.615908779
0.187808201,-0.782172325,0.2426201
0.196751448,-1.54508497,-0.136640743
0.205694696,-2.2699525,-0.512536689
0.214637943,-2.93892626,-0.875811777
0.223581191,-3.53553391,-1.21752079
0.232524439,-4.04508497,-1.52925241
0.241467686,-4.45503262,-1.80332787
0.250410934,-4.75528258,-2.03300192
0.259354182,-4.9384417,-2.212609
0.268297429,-5.0,-2.33773716
0.277240677,-4.9384417,-2.40530277
0.286183925,-4.75528258,-2.41364261
0.295127172,-4.45503262,-2.3625505
0.30407042,-4.04508497,-2.25328441
0.313013668,-3.53553391,-2.08854067
0.321956915,-2.93892626,-1.87236402
0.330900163,-2.2699525,-1.61008672
0.339843411,-1.54508497,-1.30816209
0.348786658,-0.782172325,-0.974025623
0.357729906,-3.2310851e-14,-0.61590676
0.366673153,0.782172325,-0.24262017
0.375616401,1.54508497,0.136639863
0.384559649,2.2699525,0.512536137
0.393502896,2.93892626,0.87581226
0.402446144,3.53553391,1.21752163
0.411389392,4.04508497,1.52925238
0.420332639,4.45503262,1.80332661
0.429275887,4.75528258,2.03299875
0.438219135,4.9384417,2.21261429
0.447162382,5.0,2.3377419
0.45610563,4.9384417,2.40530821
0.465048878,4.75528258,2.4136466
0.473992125,4.45503262,2.36255246
0.482935373,4.04508497,2.25328563
0.49187862,3.53553391,2.08853673
0.500821868,2.93892626,1.87236068
0.509765116,2.2699525,1.61008063
0.518708363,1.54508497,1.30815683
0.527651611,0.782172325,0.974020219
0.536594859,4.62458305e-14,0.615899012
0.545538106,-0.782172325,0.242615239
0.554481354,-1.54508497,-0.136642781
0.563424602,-2.2699525,-0.512537641
0.572367849,-2.93892626,-0.875812688
0.581311097,-3.53553391,-1.2175233
0.590254345,-4.04508497,-1.52925182
0.599197592,-4.45503262,-1.80332525
0.60814084,-4.75528258,-2.03299516
0.617084088,-4.9384417,-2.21260593
0.626027335,-5.0,-2.33773511
0.634970583,-4.9384417,-2.40530277
0.64391383,-4.75528258,-2.41364203
0.652857078,-4.45503262,-2.36255019
0.661800326,-4.04508497,-2.25328399
0.670743573,-3.53553391,-2.08853465
0.679686821,-2.93892626,-1.8723594
0.688630069,-2.2699525,-1.61007954
0.697573316,-1.54508497,-1.30815589
0.706516564,-0.782172325,-0.974020344
0.715459812,-7.35034863e-14,-0.615900952
0.724403059,0.782172325,-0.242616661
0.733346307,1.54508497,0.136642448
0.742289555,2.2699525,0.512537284
0.751232802,2.93892626,0.875810915
0.76017605,3.53553391,1.21751973
0.769119297,4.04508497,1.52925081
0.778062545,4.45503262,1.8033262
0.787005793,4.75528258,2.03299937
0.79594904,4.9384417,2.21261039
0.804892288,5.0,2.3377307
0.813835536,4.9384417,2.40530238
0.822778783,4.75528258,2.41364415
0.831722031,4.45503262,2.36255314
0.840665279,4.04508497,2.25329136
0.849608526,3.53553391,2.08854099
0.858551774,2.93892626,1.87236601
0.867495022,2.2699525,1.61008647
0.876438269,1.54508497,1.30815937
0.885381517,0.782172325,0.974022032
0.894324765,9.18793579e-14,0.615902223
0.903268012,-0.782172325,0.242617934
0.91221126,-1.54508497,-0.136641715
0.921154507,-2.2699525,-0.512537037
0.930097755,-2.93892626,-0.875811708
0.939041003,-3.53553391,-1.21752154
0.94798425,-4.04508497,-1.52925013
0.956927498,-4.45503262,-1.80332425
0.965870746,-4.75528258,-2.03299464
0.974813993,-4.9384417,-2.21260667
0.983757241,-5.0,-2.33773652
0.992700489,-4.9384417,-2.40530241
1.00164374,-4.75528258,-2.41364619
1.01058698,-4.45503262,-2.36255403
1.01953023,-4.04508497,-2.25328706
1.02847348,-3.53553391,-2.08853747
1.03741673,-2.93892626,-1.87235914
1.04635997,-2.2699525,-1.6100818
1.05530322,-1.54508497,-1.30815887
1.06424647,-0.782172325,-0.974023439
1.07318972,-3.92009558e-14,-0.61590357
1.08213297,0.782172325,-0.242619096
1.09107621,1.54508497,0.136641155
1.10001946,2.2699525,0.512536651
1.10896271,2.93892626,0.875812262
1.11790596,3.53553391,1.21752227
1.1268492,4.04508497,1.52925093
1.13579245,4.45503262,1.80332575
1.1447357,4.75528258,2.03300016
1.15367895,4.9384417,2.21261035
1.16262219,5.0,2.33773723
1.17156544,4.9384417,2.40530285
1.18050869,4.75528258,2.41364238
1.18945194,4.45503262,2.3625504
1.19839518,4.04508497,2.2532847
1.20733843,3.53553391,2.08853523
1.21628168,2.93892626,1.87235847
1.22522493,2.2699525,1.61007987
1.23416818,1.54508497,1.30815556
1.24311142,0.782172325,0.974021215
1.25205467,-1.37822425e-13,0.615902426
1.26099792,-0.782172325,0.242616257
1.26994117,-1.54508497,-0.136642489
1.27888441,-2.2699525,-0.512537466
1.28782766,-2.93892626,-0.875812535
1.29677091,-3.53553391,-1.21752214
1.30571416,-4.04508497,-1.52925247
1.3146574,-4.45503262,-1.80332918
1.32360065,-4.75528258,-2.03299843
1.3325439,-4.9384417,-2.21260866
1.34148715,-5.0,-2.33773742
1.35043039,-4.9384417,-2.40530236
1.35937364,-4.75528258,-2.4136424
1.36831689,-4.45503262,-2.36255034
1.37726014,-4.04508497,-2.25328433
1.38620339,-3.53553391,-2.08853561
1.39514663,-2.93892626,-1.8723601
1.40408988,-2.2699525,-1.6100796
1.41303313,-1.54508497,-1.30815531
1.42197638,-0.782172325,-0.974019537
1.43091962,3.14845806e-13,-0.615900469
1.43986287,0.782172325,-0.24261551
1.44880612,1.54508497,0.136642951
1.45774937,2.2699525,0.512537852
1.46669261,2.93892626,0.875814228
1.47563586,3.53553391,1.21752301
1.48457911,4.04508497,1.52925298
1.49352236,4.45503262,1.80332968
1.5024656,4.75528258,2.03300004
1.51140885,4.9384417,2.21261408
1.5203521,5.0,2.33773744
1.52929535,4.9384417,2.40530282
1.53823859,4.75528258,2.41364315
1.54718184,4.45503262,2.36255074
1.55612509,4.04508497,2.25328389
1.56506834,3.53553391,2.0885353
1.57401159,2.93892626,1.87235916
1.58295483,2.2699525,1.61007906
1.59189808,1.54508497,1.30815615
1.60084133,0.782172325,0.974022532
1.60978458,-4.74105618e-13,0.615903506
1.61872782,-0.782172325,0.24261825
1.62767107,-1.54508497,-0.136641613
1.63661432,-2.2699525,-0.512536952
1.64555757,-2.93892626,-0.875811664
1.65450081,-3.53553391,-1.21752005
1.66344406,-4.04508497,-1.52924986
1.67238731,-4.45503262,-1.80332365
1.68133056,-4.75528258,-2.03299387
1.6902738,-4.9384417,-2.21260505
1.69921705,-5.0,-2.33773409
1.7081603,-4.9384417,-2.40530112
1.71710355,-4.75528258,-2.41364135
1.7260468,-4.45503262,-2.36254976
1.73499004,-4.04508497,-2.25328404
1.74393329,-3.53553391,-2.08853469
1.75287654,-2.93892626,-1.87235876
1.76181979,-2.2699525,-1.61008214
1.77076303,-1.54508497,-1.30815827
1.77970628,-0.782172325,-0.974023143
1.78864953,6.51128999e-13,-0.615904679
1.79759278,0.782172325,-0.242619161
1.80653602,1.54508497,0.136640768
1.81547927,2.2699525,0.512536374
1.82442252,2.93892626,0.875812026
1.83336577,3.53553391,1.21752329
1.84230901,4.04508497,1.52925094
1.85125226,4.45503262,1.80332478
1.86019551,4.75528258,2.03299464
1.86913876,4.9384417,2.21260531
1.87808201,5.0,2.33773457
1.88702525,4.9384417,2.40530123
1.8959685,4.75528258,2.4136414
1.90491175,4.45503262,2.36254977
1.913855,4.04508497,2.25328436
1.92279824,3.53553391,2.08853538
1.93174149,2.93892626,1.87236003
1.94068474,2.2699525,1.61008008
1.94962799,1.54508497,1.30815669
1.95857123,0.782172325,0.974019394
1.96751448,-8.2815238e-13,0.615902002
1.97645773,-0.782172325,0.242618427
1.98540098,-1.54508497,-0.13664105
1.99434422,-2.2699525,-0.512536528
2.00328747,-2.93892626,-0.875811597
2.01223072,-3.53553391,-1.21752115
2.02117397,-4.04508497,-1.52925158
2.03011722,-4.45503262,-1.80332706
2.03906046,-4.75528258,-2.0329982
2.04800371,-4.9384417,-2.21261161
2.05694696,-5.0,-2.33774712
2.06589021,-4.9384417,-2.40530912
2.07483345,-4.75528258,-2.41364567
2.0837767,-4.45503262,-2.36255224
2.09271995,-4.04508497,-2.25328541
2.1016632,-3.53553391,-2.08853604
2.11060644,-2.93892626,-1.87235958
2.11954969,-2.2699525,-1.61007871
2.12849294,-1.54508497,-1.30815484
2.13743619,-0.782172325,-0.974019532
2.14637943,6.67667961e-13,-0.615900438
2.15532268,0.782172325,-0.242615841
2.16426593,1.54508497,0.13664473
2.17320918,2.2699525,0.512541066
2.18215243,2.93892626,0.875814026
2.19109567,3.53553391,1.21752246
2.20003892,4.04508497,1.52925148
2.20898217,4.45503262,1.80332497
2.21792542,4.75528258,2.03299559
2.22686866,4.9384417,2.21260599
2.23581191,5.0,2.33773512
2.24475516,4.9384417,2.40530867
2.25369841,4.75528258,2.4136596
2.26264165,4.45503262,2.36256136
2.2715849,4.04508497,2.25329275
2.28052815,3.53553391,2.08853991
2.2894714,2.93892626,1.87236251
2.29841464,2.2699525,1.61008118
2.30735789,1.54508497,1.30815559
2.31630114,0.782172325,0.974021229
2.32524439,-4.36129269e-13,0.615902563
2.33418764,-0.782172325,0.242618521
2.34313088,-1.54508497,-0.136641286
2.35207413,-2.2699525,-0.512536889
2.36101738,-2.93892626,-0.875812376
2.36996063,-3.53553391,-1.21752282
2.37890387,-4.04508497,-1.52925286
2.38784712,-4.45503262,-1.80332946
2.39679037,-4.75528258,-2.03299825
2.40573362,-4.9384417,-2.21260735
2.41467686,-5.0,-2.33773655
2.42362011,-4.9384417,-2.40530281
2.43256336,-4.75528258,-2.4136424
2.44150661,-4.45503262,-2.36255016
2.45044985,-4.04508497,-2.2532844
2.4593931,-3.53553391,-2.08853528
2.46833635,-2.93892626,-1.87235897
2.4772796,-2.2699525,-1.61007978
2.48622285,-1.54508497,-1.3081556
2.49516609,-0.782172325,-0.974019792
2.50410934,2.40117713e-13,-0.615900503
2.51305259,0.782172325,-0.242616691
2.52199584,1.54508497,0.136642139
2.53093908,2.2699525,0.512537115
2.53988233,2.93892626,0.875811798
2.54882558,3.53553391,1.21752091
2.55776883,4.04508497,1.52925166
2.56671207,4.45503262,1.80332767
2.57565532,4.75528258,2.03300081
2.58459857,4.9384417,2.21261072
2.59354182,5.0,2.33774048
2.60248506,4.9384417,2.40530441
2.61142831,4.75528258,2.41364307
2.62037156,4.45503262,2.36255061
2.62931481,4.04508497,2.25328478
2.63825806,3.53553391,2.08853583
2.6472013,2.93892626,1.87236028
2.65614455,2.2699525,1.61007995
2.6650878,1.54508497,1.30815546
2.67403105,0.782172325,0.974019641
2.68297429,-8.579020740000001e-15,0.61590103
2.69191754,-0.782172325,0.242616554
2.70086079,-1.54508497,-0.136642481
2.70980404,-2.2699525,-0.512537334
2.71874728,-2.93892626,-0.875812749
2.72769053,-3.53553391,-1.2175237
2.73663378,-4.04508497,-1.52925316
2.74557703,-4.45503262,-1.80332839
2.75452027,-4.75528258,-2.03300229
2.76346352,-4.9384417,-2.21261183
2.77240677,-5.0,-2.33774293
2.78135002,-4.9384417,-2.4053114
2.79029327,-4.75528258,-2.41364627
2.79923651,-4.45503262,-2.36255393
2.80817976,-4.04508497,-2.25328994
2.81712301,-3.53553391,-2.08854476
2.82606626,-2.93892626,-1.87237363
2.8350095,-2.2699525,-1.61009019
2.84395275,-1.54508497,-1.30816474
2.852896,-0.782172325,-0.974026025
2.86183925,-1.87432535e-13,-0.615904157
2.87078249,0.782172325,-0.242618671
2.87972574,1.54508497,0.136640994
2.88866899,2.2699525,0.512536436
2.89761224,2.93892626,0.875811065
2.90655548,3.53553391,1.21751988
2.91549873,4.04508497,1.52924998
2.92444198,4.45503262,1.80332377
2.93338523,4.75528258,2.03299384
2.94232848,4.9384417,2.21260584
2.95127172,5.0,2.33773474
2.96021497,4.9384417,2.40530097
2.96915822,4.75528258,2.41364508
2.97810147,4.45503262,2.36255383
2.98704471,4.04508497,2.25328923
2.99598796,3.53553391,2.0885425
3.00493121,2.93892626,1.87236566
3.01387446,2.2699525,1.61008674
3.0228177,1.54508497,1.30816046
3.03176095,0.782172325,0.974023842
3.0407042,4.18971227e-13,0.615904049
3.04964745,-0.782172325,0.242619102
3.05859069,-1.54508497,-0.136640918
3.06753394,-2.2699525,-0.512536282
3.07647719,-2.93892626,-0.875811051
3.08542044,-3.53553391,-1.21752025
3.09436369,-4.04508497,-1.52924966
3.10330693,-4.45503262,-1.80332389
3.11225018,-4.75528258,-2.03299397
3.12119343,-4.9384417,-2.21260474
3.13013668,-5.0,-2.33773438
3.13907992,-4.9384417,-2.40530087
3.14802317,-4.75528258,-2.41364129
3.15696642,-4.45503262,-2.36254958
3.16590967,-4.04508497,-2.2532839
3.17485291,-3.53553391,-2.08853477
3.18379616,-2.93892626,-1.87236193
3.19273941,-2.2699525,-1.6100844
3.20168266,-1.54508497,-1.30815907
3.2106259,-0.782172325,-0.974021857
3.21956915,-6.50509919e-13,-0.615901287
3.2285124,0.782172325,-0.242616177
3.23745565,1.54508497,0.136642708
3.2463989,2.2699525,0.512537233
3.25534214,2.93892626,0.875811326
3.26428539,3.53553391,1.217518
3.27322864,4.04508497,1.52924752
3.28217189,4.45503262,1.80332252
3.29111513,4.75528258,2.03299322
3.30005838,4.9384417,2.21260465
3.30900163,5.0,2.33773594
3.31794488,4.9384417,2.40530193
3.32688812,4.75528258,2.41364205
3.33583137,4.45503262,2.36255019
3.34477462,4.04508497,2.25328427
3.35371787,3.53553391,2.08853539
3.36266111,2.93892626,1.87235978
3.37160436,2.2699525,1.61008064
3.38054761,1.54508497,1.30815616
3.38949086,0.782172325,0.974019977
3.39843411,8.46521475e-13,0.615900244
3.40737735,-0.782172325,0.2426159
3.4163206,-1.54508497,-0.136642384
3.42526385,-2.2699525,-0.512537131
3.4342071,-2.93892626,-0.875812504
3.44315034,-3.53553391,-1.21752242
3.45209359,-4.04508497,-1.52925512
3.46103684,-4.45503262,-1.80332712
3.46998009,-4.75528258,-2.03299671
3.47892333,-4.9384417,-2.21260543
3.48786658,-5.0,-2.3377349
3.49680983,-4.9384417,-2.40530135
3.50575308,-4.75528258,-2.41364161
3.51469632,-4.45503262,-2.36254995
3.52363957,-4.04508497,-2.2532843
3.53258282,-3.53553391,-2.08853554
3.54152607,-2.93892626,-1.87236334
3.55046932,-2.2699525,-1.61008425
3.55941256,-1.54508497,-1.3081595
3.56835581,-0.782172325,-0.974021959
3.57729906,-1.07806017e-12,-0.615901579
