TIME,Addition_2.s_out.signal[1],SensorVoltage_1.v
0.0,0.0,0.0
0.00814875417,0.782172325,0.0895162068
0.0162975083,1.54508497,0.303563215
0.0244462625,2.2699525,0.583744733
0.0325950167,2.93892626,0.892319791
0.0407437709,3.53553391,1.20376857
0.048892525,4.04508497,1.49999998
0.0570412792,4.45503262,1.76767611
0.0651900334,4.75528258,1.99669064
0.0733387876,4.9384417,2.17936825
0.0814875417,5.0,2.31002593
0.0896362959,4.9384417,2.38475625
0.0977850501,4.75528258,2.40132008
0.105933804,4.45503262,2.35907659
0.114082558,4.04508497,2.25893251
0.122231313,3.53553391,2.10327424
0.130380067,2.93892626,1.89588948
0.138528821,2.2699525,1.64185817
0.146677575,1.54508497,1.3474197
0.154826329,0.782172325,1.01981411
0.162975083,7.273641320000001e-15,0.667105191
0.171123838,-0.782172325,0.297976919
0.179272592,-1.54508497,-0.0784868041
0.187421346,-2.2699525,-0.453015999
0.1955701,-2.93892626,-0.816391566
0.203718854,-3.53553391,-1.15966457
0.211867609,-4.04508497,-1.47438236
0.220016363,-4.45503262,-1.75279594
0.228165117,-4.75528258,-1.98804901
0.236313871,-4.9384417,-2.17435153
0.244462625,-5.0,-2.30711307
0.252611379,-4.9384417,-2.38306471
0.260760134,-4.75528258,-2.40033774
0.268908888,-4.45503262,-2.35850647
0.277057642,-4.04508497,-2.25860102
0.285206396,-3.53553391,-2.10308169
0.29335515,-2.93892626,-1.89578019
0.301503904,-2.2699525,-1.64179673
0.309652659,-1.54508497,-1.34738541
0.317801413,-0.782172325,-1.01979801
0.325950167,-5.6654984500000005e-15,-0.667099564
0.334098921,0.782172325,-0.297974585
0.342247675,1.54508497,0.0784881601
0.350396429,2.2699525,0.453018443
0.358545184,2.93892626,0.816393645
0.366693938,3.53553391,1.1596678
0.374842692,4.04508497,1.47438964
0.382991446,4.45503262,1.75280016
0.3911402,4.75528258,1.98805455
0.399288954,4.9384417,2.17434676
0.407437709,5.0,2.30711166
0.415586463,4.9384417,2.38306405
0.423735217,4.75528258,2.40033699
0.431883971,4.45503262,2.35850668
0.440032725,4.04508497,2.25860127
0.44818148,3.53553391,2.10308156
0.456330234,2.93892626,1.89577738
0.464478988,2.2699525,1.64179255
0.472627742,1.54508497,1.34738217
0.480776496,0.782172325,1.01979428
0.48892525,-2.48084431e-14,0.667095901
0.497074005,-0.782172325,0.297970994
0.505222759,-1.54508497,-0.0784906668
0.513371513,-2.2699525,-0.453020108
0.521520267,-2.93892626,-0.816394872
0.529669021,-3.53553391,-1.1596664
0.537817775,-4.04508497,-1.47438292
0.54596653,-4.45503262,-1.75279585
0.554115284,-4.75528258,-1.98804882
0.562264038,-4.9384417,-2.17434964
0.570412792,-5.0,-2.30711099
0.578561546,-4.9384417,-2.38306375
0.5867103,-4.75528258,-2.40034217
0.594859055,-4.45503262,-2.35851372
0.603007809,-4.04508497,-2.25860802
0.611156563,-3.53553391,-2.10308741
0.619305317,-2.93892626,-1.89578063
0.627454071,-2.2699525,-1.64179451
0.635602826,-1.54508497,-1.34738291
0.64375158,-0.782172325,-1.01979469
0.651900334,5.08414925e-14,-0.667096004
0.660049088,0.782172325,-0.297970999
0.668197842,1.54508497,0.0784905283
0.676346596,2.2699525,0.45301939
0.684495351,2.93892626,0.816394114
0.692644105,3.53553391,1.15966658
0.700792859,4.04508497,1.47438385
0.708941613,4.45503262,1.75279811
0.717090367,4.75528258,1.9880522
0.725239121,4.9384417,2.17435164
0.733387876,5.0,2.30711333
0.74153663,4.9384417,2.38306489
0.749685384,4.75528258,2.40033772
0.757834138,4.45503262,2.35850701
0.765982892,4.04508497,2.25860122
0.774131646,3.53553391,2.10308133
0.782280401,2.93892626,1.89577759
0.790429155,2.2699525,1.64179308
0.798577909,1.54508497,1.34738233
0.806726663,0.782172325,1.01979447
0.814875417,-7.68745419e-14,0.667095985
0.823024171,-0.782172325,0.29797082
0.831172926,-1.54508497,-0.0784914894
0.83932168,-2.2699525,-0.453020369
0.847470434,-2.93892626,-0.816394332
0.855619188,-3.53553391,-1.15966635
0.863767942,-4.04508497,-1.47438476
0.871916697,-4.45503262,-1.75279677
0.880065451,-4.75528258,-1.98805487
0.888214205,-4.9384417,-2.17436388
0.896362959,-5.0,-2.30712061
0.904511713,-4.9384417,-2.3830715
0.912660467,-4.75528258,-2.40034169
0.920809222,-4.45503262,-2.35850875
0.928957976,-4.04508497,-2.2586037
0.93710673,-3.53553391,-2.10308313
0.945255484,-2.93892626,-1.89577836
0.953404238,-2.2699525,-1.64179327
0.961552992,-1.54508497,-1.34738251
0.969701747,-0.782172325,-1.01979438
0.977850501,1.02907591e-13,-0.667096827
0.985999255,0.782172325,-0.297974392
0.994148009,1.54508497,0.078486797
1.00229676,2.2699525,0.453017756
1.01044552,2.93892626,0.816393344
1.01859427,3.53553391,1.15966691
1.02674303,4.04508497,1.47438342
1.03489178,4.45503262,1.75279664
1.04304053,4.75528258,1.98804941
1.05118929,4.9384417,2.17434973
1.05933804,5.0,2.307111
1.0674868,4.9384417,2.38306325
1.07563555,4.75528258,2.40033672
1.08378431,4.45503262,2.35850593
1.09193306,4.04508497,2.25860078
1.10008181,3.53553391,2.10308156
1.10823057,2.93892626,1.89577745
1.11637932,2.2699525,1.64179253
1.12452808,1.54508497,1.34738194
1.13267683,0.782172325,1.01979371
1.14082558,-1.37822425e-13,0.667096036
1.14897434,-0.782172325,0.297972762
1.15712309,-1.54508497,-0.078489356
1.16527185,-2.2699525,-0.453019035
1.1734206,-2.93892626,-0.81639337
1.18156936,-3.53553391,-1.15966593
1.18971811,-4.04508497,-1.47438302
1.19786686,-4.45503262,-1.75279701
1.20601562,-4.75528258,-1.98805174
1.21416437,-4.9384417,-2.17435347
1.22231313,-5.0,-2.30711596
1.23046188,-4.9384417,-2.38306952
1.23861063,-4.75528258,-2.40034221
1.24675939,-4.45503262,-2.35850939
1.25490814,-4.04508497,-2.25860196
1.2630569,-3.53553391,-2.10308238
1.27120565,-2.93892626,-1.8957778
1.27935441,-2.2699525,-1.64179341
1.28750316,-1.54508497,-1.34738206
1.29565191,-0.782172325,-1.01979408
1.30380067,1.72737259e-13,-0.667095585
1.31194942,0.782172325,-0.297970598
1.32009818,1.54508497,0.0784909553
1.32824693,2.2699525,0.453020182
1.33639568,2.93892626,0.816394042
1.34454444,3.53553391,1.15966616
1.35269319,4.04508497,1.47438298
1.36084195,4.45503262,1.75279594
1.3689907,4.75528258,1.98804966
1.37713946,4.9384417,2.17435013
1.38528821,5.0,2.30711211
1.39343696,4.9384417,2.38306477
1.40158572,4.75528258,2.40033844
1.40973447,4.45503262,2.35850712
1.41788323,4.04508497,2.25860103
1.42603198,3.53553391,2.10308188
1.43418073,2.93892626,1.89577761
1.44232949,2.2699525,1.64179325
1.45047824,1.54508497,1.34738191
1.458627,0.782172325,1.019795
1.46677575,-1.89888524e-13,0.667096177
1.47492451,-0.782172325,0.297971233
1.48307326,-1.54508497,-0.078491202
1.49122201,-2.2699525,-0.45302014
1.49937077,-2.93892626,-0.816393818
1.50751952,-3.53553391,-1.1596669
1.51566828,-4.04508497,-1.47438301
1.52381703,-4.45503262,-1.75279614
1.53196578,-4.75528258,-1.98804874
1.54011454,-4.9384417,-2.17434993
1.54826329,-5.0,-2.30711032
1.55641205,-4.9384417,-2.38306291
1.5645608,-4.75528258,-2.40034103
1.57270956,-4.45503262,-2.35851051
1.58085831,-4.04508497,-2.25860359
1.58900706,-3.53553391,-2.10308588
1.59715582,-2.93892626,-1.89579004
1.60530457,-2.2699525,-1.64180853
1.61345333,-1.54508497,-1.34739267
1.62160208,-0.782172325,-1.0198005
1.62975083,2.24803357e-13,-0.667099774
1.63789959,0.782172325,-0.297974754
1.64604834,1.54508497,0.0784880011
1.6541971,2.2699525,0.453018664
1.66234585,2.93892626,0.816392459
1.67049461,3.53553391,1.15966479
1.67864336,4.04508497,1.47438213
1.68679211,4.45503262,1.75279625
1.69494087,4.75528258,1.98804918
1.70308962,4.9384417,2.17435002
1.71123838,5.0,2.30711186
1.71938713,4.9384417,2.38306413
1.72753588,4.75528258,2.40033698
1.73568464,4.45503262,2.35850965
1.74383339,4.04508497,2.25860568
1.75198215,3.53553391,2.10308632
1.7601309,2.93892626,1.89577984
1.76827966,2.2699525,1.64179659
1.77642841,1.54508497,1.34738699
1.78457716,0.782172325,1.01979743
1.79272592,-2.59718191e-13,0.667097225
1.80087467,-0.782172325,0.297971964
1.80902343,-1.54508497,-0.0784895438
1.81717218,-2.2699525,-0.453019093
1.82532093,-2.93892626,-0.816393458
1.83346969,-3.53553391,-1.1596655
1.84161844,-4.04508497,-1.47438266
1.8497672,-4.45503262,-1.75279612
1.85791595,-4.75528258,-1.98804892
1.86606471,-4.9384417,-2.17434919
1.87421346,-5.0,-2.30711084
1.88236221,-4.9384417,-2.38306337
1.89051097,-4.75528258,-2.40033935
1.89865972,-4.45503262,-2.35851129
1.90680848,-4.04508497,-2.25860424
1.91495723,-3.53553391,-2.10308294
1.92310598,-2.93892626,-1.8957783
1.93125474,-2.2699525,-1.64179183
1.93940349,-1.54508497,-1.34737961
1.94755225,-0.782172325,-1.01979367
1.955701,2.76869456e-13,-0.6670958
1.96384976,0.782172325,-0.297971006
1.97199851,1.54508497,0.07849083
1.98014726,2.2699525,0.453020034
1.98829602,2.93892626,0.816394502
1.99644477,3.53553391,1.15966798
2.00459353,4.04508497,1.47438412
2.01274228,4.45503262,1.75279635
2.02089103,4.75528258,1.9880501
2.02903979,4.9384417,2.17435304
2.03718854,5.0,2.30711374
2.0453373,4.9384417,2.3830652
2.05348605,4.75528258,2.40033773
2.06163481,4.45503262,2.35850652
2.06978356,4.04508497,2.25860119
2.07793231,3.53553391,2.10308087
2.08608107,2.93892626,1.89577709
2.09422982,2.2699525,1.64179251
2.10237858,1.54508497,1.34738187
2.11052733,0.782172325,1.01979406
2.11867609,2.57235097e-14,0.667096949
2.12682484,-0.782172325,0.297972223
2.13497359,-1.54508497,-0.0784902566
2.14312235,-2.2699525,-0.453019443
2.1512711,-2.93892626,-0.816393524
2.15941986,-3.53553391,-1.15966541
2.16756861,-4.04508497,-1.47438246
2.17571736,-4.45503262,-1.75279626
2.18386612,-4.75528258,-1.98804919
2.19201487,-4.9384417,-2.17435003
2.20016363,-5.0,-2.30711184
2.20831238,-4.9384417,-2.38306417
2.21646114,-4.75528258,-2.40033784
2.22460989,-4.45503262,-2.35850649
2.23275864,-4.04508497,-2.25860097
2.2409074,-3.53553391,-2.10308092
2.24905615,-2.93892626,-1.8957769
2.25720491,-2.2699525,-1.64179263
2.26535366,-1.54508497,-1.34738185
2.27350241,-0.782172325,-1.0197938
2.28165117,-3.99370749e-13,-0.667094438
2.28979992,0.782172325,-0.297970826
2.29794868,1.54508497,0.0784901928
2.30609743,2.2699525,0.453019528
2.31424619,2.93892626,0.816394995
2.32239494,3.53553391,1.15966733
2.33054369,4.04508497,1.47438613
2.33869245,4.45503262,1.75280145
2.3468412,4.75528258,1.98805544
2.35498996,4.9384417,2.17435539
2.36313871,5.0,2.30711809
2.37128746,4.9384417,2.3830751
2.37943622,4.75528258,2.40034588
2.38758497,4.45503262,2.35851688
2.39573373,4.04508497,2.25860873
2.40388248,3.53553391,2.10308646
2.41203124,2.93892626,1.89578033
2.42017999,2.2699525,1.64179449
2.42832874,1.54508497,1.34738728
2.4364775,0.782172325,1.01979949
2.44462625,8.08545125e-13,0.66709912
2.45277501,-0.782172325,0.297973818
2.46092376,-1.54508497,-0.0784889223
2.46907251,-2.2699525,-0.453018663
2.47722127,-2.93892626,-0.816393411
2.48537002,-3.53553391,-1.15966587
2.49351878,-4.04508497,-1.47438238
2.50166753,-4.45503262,-1.7527957
2.50981629,-4.75528258,-1.98804799
2.51796504,-4.9384417,-2.17434971
2.52611379,-5.0,-2.30711057
2.53426255,-4.9384417,-2.38306324
2.5424113,-4.75528258,-2.40033663
2.55056006,-4.45503262,-2.35850595
2.55870881,-4.04508497,-2.25860069
2.56685756,-3.53553391,-2.10308122
2.57500632,-2.93892626,-1.89577727
2.58315507,-2.2699525,-1.6417929
2.59130383,-1.54508497,-1.34738222
2.59945258,-0.782172325,-1.01979434
2.60760134,-1.2177195e-12,-0.667097572
2.61575009,0.782172325,-0.29797284
2.62389884,1.54508497,0.078488727
2.6320476,2.2699525,0.453017951
2.64019635,2.93892626,0.816392849
2.64834511,3.53553391,1.15966533
2.65649386,4.04508497,1.47438242
2.66464261,4.45503262,1.75279539
2.67279137,4.75528258,1.98804877
2.68094012,4.9384417,2.17434934
2.68908888,5.0,2.30711065
2.69723763,4.9384417,2.38306333
2.70538639,4.75528258,2.40033671
2.71353514,4.45503262,2.35850607
2.72168389,4.04508497,2.25860084
2.72983265,3.53553391,2.1030813
2.7379814,2.93892626,1.89577727
2.74613016,2.2699525,1.64179257
2.75427891,1.54508497,1.34738193
2.76242766,0.782172325,1.01979382
2.77057642,1.62689388e-12,0.667095584
2.77872517,-0.782172325,0.297971261
2.78687393,-1.54508497,-0.0784899817
2.79502268,-2.2699525,-0.45301955
2.80317144,-2.93892626,-0.816391536
2.81132019,-3.53553391,-1.15966397
2.81946894,-4.04508497,-1.47438312
2.8276177,-4.45503262,-1.7527956
2.83576645,-4.75528258,-1.98804882
2.84391521,-4.9384417,-2.17434951
2.85206396,-5.0,-2.30711067
2.86021271,-4.9384417,-2.38306356
2.86836147,-4.75528258,-2.40033717
2.87651022,-4.45503262,-2.35850635
2.88465898,-4.04508497,-2.25860078
2.89280773,-3.53553391,-2.10308075
2.90095649,-2.93892626,-1.89577679
2.90910524,-2.2699525,-1.64179259
2.91725399,-1.54508497,-1.34738184
2.92540275,-0.782172325,-1.01979404
2.9335515,-2.00054112e-12,-0.667096136
2.94170026,0.782172325,-0.297971775
2.94984901,1.54508497,0.0784898003
2.95799776,2.2699525,0.453019413
2.96614652,2.93892626,0.816395015
2.97429527,3.53553391,1.15966936
2.98244403,4.04508497,1.47438562
2.99059278,4.45503262,1.75279709
2.99874154,4.75528258,1.98805001
3.00689029,4.9384417,2.17435122
3.01503904,5.0,2.30711162
3.0231878,4.9384417,2.38306416
3.03133655,4.75528258,2.40034343
3.03948531,4.45503262,2.35850981
3.04763406,4.04508497,2.25860307
3.05578281,3.53553391,2.10308295
3.06393157,2.93892626,1.89577833
3.07208032,2.2699525,1.64179337
3.08022908,1.54508497,1.3473819
3.08837783,0.782172325,1.01979372
3.09652659,2.40971549e-12,0.667096206
3.10467534,-0.782172325,0.297972323
3.11282409,-1.54508497,-0.0784895859
3.12097285,-2.2699525,-0.45301936
3.1291216,-2.93892626,-0.816394634
3.13727036,-3.53553391,-1.15966855
3.14541911,-4.04508497,-1.47438543
3.15356786,-4.45503262,-1.75279751
3.16171662,-4.75528258,-1.98804994
3.16986537,-4.9384417,-2.17435129
3.17801413,-5.0,-2.30711367
3.18616288,-4.9384417,-2.38306484
3.19431164,-4.75528258,-2.4003381
3.20246039,-4.45503262,-2.35850663
3.21060914,-4.04508497,-2.25860106
3.2187579,-3.53553391,-2.10308166
3.22690665,-2.93892626,-1.89577629
3.23505541,-2.2699525,-1.64179234
3.24320416,-1.54508497,-1.34738521
3.25135292,-0.782172325,-1.01979941
3.25950167,-2.81888987e-12,-0.667099653
