TIME,Addition_2.s_out.signal[1],SensorVoltage_1.v
0.0,0.0,0.0
0.0118224471,0.782172325,0.120721286
0.0236448941,1.54508497,0.386339549
0.0354673412,2.2699525,0.709679869
0.0472897883,2.93892626,1.04611129
0.0591122353,3.53553391,1.37068865
0.0709346824,4.04508497,1.66783564
0.0827571294,4.45503262,1.9267904
0.0945795765,4.75528258,2.13960487
0.106402024,4.9384417,2.30032564
0.118224471,5.0,2.40467521
0.130046918,4.9384417,2.44993789
0.141869365,4.75528258,2.43493142
0.153691812,4.45503262,2.35999422
0.165514259,4.04508497,2.22695725
0.177336706,3.53553391,2.03909023
0.189159153,2.93892626,1.80101783
0.2009816,2.2699525,1.51859681
0.212804047,1.54508497,1.19878813
0.224626494,0.782172325,0.84946352
0.236448941,2.8327492300000003e-15,0.479217272
0.248271388,-0.782172325,0.0971690751
0.260093835,-1.54508497,-0.287270437
0.271916282,-2.2699525,-0.664637085
0.28373873,-2.93892626,-1.02563637
0.295561177,-3.53553391,-1.36138179
0.307383624,-4.04508497,-1.66360183
0.319206071,-4.45503262,-1.92486062
0.331028518,-4.75528258,-2.13872801
0.342850965,-4.9384417,-2.2999331
0.354673412,-5.0,-2.40449829
0.366495859,-4.9384417,-2.44986253
0.378318306,-4.75528258,-2.43489853
0.390140753,-4.45503262,-2.35997924
0.4019632,-4.04508497,-2.2269511
0.413785647,-3.53553391,-2.03908809
0.425608094,-2.93892626,-1.80101524
0.437430541,-2.2699525,-1.5185963
0.449252988,-1.54508497,-1.19878572
0.461075435,-0.782172325,-0.849459384
0.472897883,-1.01063906e-14,-0.479214941
0.48472033,0.782172325,-0.0971680795
0.496542777,1.54508497,0.287271308
0.508365224,2.2699525,0.664636696
0.520187671,2.93892626,1.02563578
0.532010118,3.53553391,1.36138045
0.543832565,4.04508497,1.66360306
0.555655012,4.45503262,1.92486341
0.567477459,4.75528258,2.1387258
0.579299906,4.9384417,2.29992578
0.591122353,5.0,2.40449805
0.6029448,4.9384417,2.44986002
0.614767247,4.75528258,2.4348965
0.626589694,4.45503262,2.35997837
0.638412141,4.04508497,2.22695023
0.650234588,3.53553391,2.03908783
0.662057036,2.93892626,1.80101606
0.673879483,2.2699525,1.51859777
0.68570193,1.54508497,1.19878766
0.697524377,0.782172325,0.849457241
0.709346824,1.96004779e-14,0.479211493
0.721169271,-0.782172325,0.0971661061
0.732991718,-1.54508497,-0.287272054
0.744814165,-2.2699525,-0.664637126
0.756636612,-2.93892626,-1.02563618
0.768459059,-3.53553391,-1.36138109
0.780281506,-4.04508497,-1.6636038
0.792103953,-4.45503262,-1.9248632
0.8039264,-4.75528258,-2.13872555
0.815748847,-4.9384417,-2.29992694
0.827571294,-5.0,-2.40449549
0.839393741,-4.9384417,-2.44985665
0.851216189,-4.75528258,-2.43489463
0.863038636,-4.45503262,-2.35997755
0.874861083,-4.04508497,-2.22694997
0.88668353,-3.53553391,-2.0390872
0.898505977,-2.93892626,-1.80101448
0.910328424,-2.2699525,-1.51859609
0.922150871,-1.54508497,-1.19878575
0.933973318,-0.782172325,-0.849457014
0.945795765,-2.02127811e-14,-0.479211471
0.957618212,0.782172325,-0.097166049
0.969440659,1.54508497,0.287272265
0.981263106,2.2699525,0.664637021
0.993085553,2.93892626,1.0256357
1.004908,3.53553391,1.36138031
1.01673045,4.04508497,1.663603
1.02855289,4.45503262,1.9248625
1.04037534,4.75528258,2.13872506
1.05219779,4.9384417,2.29992542
1.06402024,5.0,2.40449395
1.07584268,4.9384417,2.44985633
1.08766513,4.75528258,2.43489473
1.09948758,4.45503262,2.35997742
1.11131002,4.04508497,2.22694957
1.12313247,3.53553391,2.03908707
1.13495492,2.93892626,1.80101605
1.14677737,2.2699525,1.51859795
1.15859981,1.54508497,1.19878681
1.17042226,0.782172325,0.849457473
1.18224471,-7.68745419e-14,0.479212984
1.19406715,-0.782172325,0.0971670068
1.2058896,-1.54508497,-0.28727164
1.21771205,-2.2699525,-0.664637235
1.22953449,-2.93892626,-1.0256375
1.24135694,-3.53553391,-1.3613828
1.25317939,-4.04508497,-1.66360534
1.26500184,-4.45503262,-1.92486644
1.27682428,-4.75528258,-2.13873219
1.28864673,-4.9384417,-2.29992497
1.30046918,-5.0,-2.40449617
1.31229162,-4.9384417,-2.44985687
1.32411407,-4.75528258,-2.43489399
1.33593652,-4.45503262,-2.35997747
1.34775897,-4.04508497,-2.22694968
1.35958141,-3.53553391,-2.03908755
1.37140386,-2.93892626,-1.80101607
1.38322631,-2.2699525,-1.51859744
1.39504875,-1.54508497,-1.19878651
1.4068712,-0.782172325,-0.849457252
1.41869365,2.2725257e-13,-0.479212813
1.43051609,0.782172325,-0.0971670565
1.44233854,1.54508497,0.287271865
1.45416099,2.2699525,0.664636772
1.46598344,2.93892626,1.02563575
1.47780588,3.53553391,1.36138015
1.48962833,4.04508497,1.66360365
1.50145078,4.45503262,1.92486252
1.51327322,4.75528258,2.13872509
1.52509567,4.9384417,2.29992556
1.53691812,5.0,2.40449345
1.54874057,4.9384417,2.44985564
1.56056301,4.75528258,2.43489551
1.57238546,4.45503262,2.35998274
1.58420791,4.04508497,2.22695759
1.59603035,3.53553391,2.03909302
1.6078528,2.93892626,1.80101984
1.61967525,2.2699525,1.51859949
1.63149769,1.54508497,1.19878731
1.64332014,0.782172325,0.849457678
1.65514259,-3.50985246e-13,0.479211175
1.66696504,-0.782172325,0.09716599
1.67878748,-1.54508497,-0.287272111
1.69060993,-2.2699525,-0.664637369
1.70243238,-2.93892626,-1.02563718
1.71425482,-3.53553391,-1.36138223
1.72607727,-4.04508497,-1.66360623
1.73789972,-4.45503262,-1.92486497
1.74972217,-4.75528258,-2.13872991
1.76154461,-4.9384417,-2.29993442
1.77336706,-5.0,-2.40449907
1.78518951,-4.9384417,-2.44985819
1.79701195,-4.75528258,-2.43489523
1.8088344,-4.45503262,-2.35997782
1.82065685,-4.04508497,-2.2269501
1.83247929,-3.53553391,-2.03908802
1.84430174,-2.93892626,-1.80101631
1.85612419,-2.2699525,-1.51859728
1.86794664,-1.54508497,-1.19878639
1.87976908,-0.782172325,-0.849457321
1.89159153,4.9248149e-13,-0.47921158
1.90341398,0.782172325,-0.0971660932
1.91523642,1.54508497,0.287272077
1.92705887,2.2699525,0.664637412
1.93888132,2.93892626,1.02563757
1.95070377,3.53553391,1.36138313
1.96252621,4.04508497,1.66360526
1.97434866,4.45503262,1.92486591
1.98617111,4.75528258,2.138728
1.99799355,4.9384417,2.2999294
2.009816,5.0,2.40449876
2.02163845,4.9384417,2.44985969
2.03346089,4.75528258,2.4348962
2.04528334,4.45503262,2.35997741
2.05710579,4.04508497,2.22695042
2.06892824,3.53553391,2.03908619
2.08075068,2.93892626,1.80101281
2.09257313,2.2699525,1.51859648
2.10439558,1.54508497,1.19878575
2.11621802,0.782172325,0.849456442
2.12804047,-6.33977734e-13,0.479211292
2.13986292,-0.782172325,0.097165888
2.15168537,-1.54508497,-0.287272234
2.16350781,-2.2699525,-0.664636595
2.17533026,-2.93892626,-1.02563563
2.18715271,-3.53553391,-1.36138154
2.19897515,-4.04508497,-1.66360664
2.2107976,-4.45503262,-1.92486398
2.22262005,-4.75528258,-2.13872621
2.23444249,-4.9384417,-2.29992641
2.24626494,-5.0,-2.40449522
2.25808739,-4.9384417,-2.44985673
2.26990984,-4.75528258,-2.43489428
2.28173228,-4.45503262,-2.35997737
2.29355473,-4.04508497,-2.22694997
2.30537718,-3.53553391,-2.03908731
2.31719962,-2.93892626,-1.80101615
2.32902207,-2.2699525,-1.51859808
2.34084452,-1.54508497,-1.19878809
2.35266697,-0.782172325,-0.849459176
2.36448941,7.75473978e-13,-0.479213613
2.37631186,0.782172325,-0.0971670149
2.38813431,1.54508497,0.287271727
2.39995675,2.2699525,0.664636878
2.4117792,2.93892626,1.02563587
2.42360165,3.53553391,1.36138024
2.4354241,4.04508497,1.6636042
2.44724654,4.45503262,1.92486481
2.45906899,4.75528258,2.13872942
2.47089144,4.9384417,2.29992927
2.48271388,5.0,2.40449947
2.49453633,4.9384417,2.44986513
2.50635878,4.75528258,2.43489954
2.51818122,4.45503262,2.35997959
2.53000367,4.04508497,2.22695042
2.54182612,3.53553391,2.03908768
2.55364857,2.93892626,1.80101759
2.56547101,2.2699525,1.51860216
2.57729346,1.54508497,1.19879155
2.58911591,0.782172325,0.849460687
2.60093835,-9.3473379e-13,0.479213813
2.6127608,-0.782172325,0.0971671625
2.62458325,-1.54508497,-0.287271577
2.6364057,-2.2699525,-0.664636663
2.64822814,-2.93892626,-1.02563552
2.66005059,-3.53553391,-1.36138009
2.67187304,-4.04508497,-1.66360287
2.68369548,-4.45503262,-1.9248623
2.69551793,-4.75528258,-2.13872658
2.70734038,-4.9384417,-2.29992613
2.71916282,-5.0,-2.40449515
2.73098527,-4.9384417,-2.44985709
2.74280772,-4.75528258,-2.43489484
2.75463017,-4.45503262,-2.35997754
2.76645261,-4.04508497,-2.22694955
2.77827506,-3.53553391,-2.03908759
2.79009751,-2.93892626,-1.80102068
2.80191995,-2.2699525,-1.51860143
2.8137424,-1.54508497,-1.1987881
2.82556485,-0.782172325,-0.849457943
2.8373873,1.05846647e-12,-0.479211831
2.84920974,0.782172325,-0.0971657173
2.86103219,1.54508497,0.287272299
2.87285464,2.2699525,0.664636578
2.88467708,2.93892626,1.02563566
2.89649953,3.53553391,1.36138223
2.90832198,4.04508497,1.66360602
2.92014442,4.45503262,1.92486498
2.93196687,4.75528258,2.13872898
2.94378932,4.9384417,2.29992917
2.95561177,5.0,2.40449579
2.96743421,4.9384417,2.44985664
2.97925666,4.75528258,2.43489453
2.99107911,4.45503262,2.35997741
3.00290155,4.04508497,2.22694998
3.014724,3.53553391,2.03908708
3.02654645,2.93892626,1.80101463
3.0383689,2.2699525,1.51859702
3.05019134,1.54508497,1.19878609
3.06201379,0.782172325,0.8494564
3.07383624,-1.18219914e-12,0.479211077
3.08565868,-0.782172325,0.0971655906
3.09748113,-1.54508497,-0.287272366
3.10930358,-2.2699525,-0.66463726
3.12112602,-2.93892626,-1.02563642
3.13294847,-3.53553391,-1.36138238
3.14477092,-4.04508497,-1.66360409
3.15659337,-4.45503262,-1.92486315
3.16841581,-4.75528258,-2.13872579
3.18023826,-4.9384417,-2.29992574
3.19206071,-5.0,-2.40449429
3.20388315,-4.9384417,-2.44985607
3.2157056,-4.75528258,-2.43489459
3.22752805,-4.45503262,-2.35997742
3.2393505,-4.04508497,-2.22694992
3.25117294,-3.53553391,-2.03908775
3.26299539,-2.93892626,-1.80101641
3.27481784,-2.2699525,-1.51859807
3.28664028,-1.54508497,-1.19878567
3.29846273,-0.782172325,-0.849457617
3.31028518,1.34145895e-12,-0.479211775
3.32210762,0.782172325,-0.0971654947
3.33393007,1.54508497,0.28727226
3.34575252,2.2699525,0.664637205
3.35757497,2.93892626,1.02563679
3.36939741,3.53553391,1.36138276
3.38121986,4.04508497,1.66360628
3.39304231,4.45503262,1.92486585
3.40486475,4.75528258,2.13872812
3.4166872,4.9384417,2.29992675
3.42850965,5.0,2.40449467
3.4403321,4.9384417,2.4498556
3.45215454,4.75528258,2.43489188
3.46397699,4.45503262,2.35997625
3.47579944,4.04508497,2.22694955
3.48762188,3.53553391,2.03908757
3.49944433,2.93892626,1.80101636
3.51126678,2.2699525,1.51859808
3.52308922,1.54508497,1.1987868
3.53491167,0.782172325,0.849456877
3.54673412,-1.46519163e-12,0.479211899
3.55855657,-0.782172325,0.0971670379
3.57037901,-1.54508497,-0.287271689
3.58220146,-2.2699525,-0.664637343
3.59402391,-2.93892626,-1.02563727
3.60584635,-3.53553391,-1.36138192
3.6176688,-4.04508497,-1.66360368
3.62949125,-4.45503262,-1.92486371
3.6413137,-4.75528258,-2.13872735
3.65313614,-4.9384417,-2.29992827
3.66495859,-5.0,-2.40449537
3.67678104,-4.9384417,-2.44985853
3.68860348,-4.75528258,-2.43489745
3.70042593,-4.45503262,-2.3599806
3.71224838,-4.04508497,-2.2269549
3.72407082,-3.53553391,-2.03909009
3.73589327,-2.93892626,-1.80101573
3.74771572,-2.2699525,-1.51859443
3.75953817,-1.54508497,-1.19878517
3.77136061,-0.782172325,-0.84945639
3.78318306,1.62445144e-12,-0.479212214
3.79500551,0.782172325,-0.0971663883
3.80682795,1.54508497,0.287271995
3.8186504,2.2699525,0.664636787
3.83047285,2.93892626,1.02563549
3.8422953,3.53553391,1.36138025
3.85411774,4.04508497,1.66360322
3.86594019,4.45503262,1.9248624
3.87776264,4.75528258,2.1387251
3.88958508,4.9384417,2.29992539
3.90140753,5.0,2.40449393
3.91322998,4.9384417,2.44985585
3.92505242,4.75528258,2.43489416
3.93687487,4.45503262,2.35997721
3.94869732,4.04508497,2.22694995
3.96051977,3.53553391,2.03908771
3.97234221,2.93892626,1.80101633
3.98416466,2.2699525,1.51859807
3.99598711,1.54508497,1.19878879
4.00780955,0.782172325,0.849460474
4.019632,-1.71265698e-12,0.47921265
4.03145445,-0.782172325,0.0971663161
4.0432769,-1.54508497,-0.287272172
4.05509934,-2.2699525,-0.664636968
4.06692179,-2.93892626,-1.02563626
4.07874424,-3.53553391,-1.36138011
4.09056668,-4.04508497,-1.66360317
4.10238913,-4.45503262,-1.92486221
4.11421158,-4.75528258,-2.13872502
4.12603403,-4.9384417,-2.29992591
4.13785647,-5.0,-2.40449577
4.14967892,-4.9384417,-2.44985231
4.16150137,-4.75528258,-2.43489362
4.17332381,-4.45503262,-2.35998189
4.18514626,-4.04508497,-2.22696115
4.19696871,-3.53553391,-2.03909478
4.20879115,-2.93892626,-1.80102225
4.2206136,-2.2699525,-1.51860316
4.23243605,-1.54508497,-1.19879001
4.2442585,-0.782172325,-0.849458864
4.25608094,1.87191679e-12,-0.479212221
4.26790339,0.782172325,-0.0971659416
4.27972584,1.54508497,0.287273608
4.29154828,2.2699525,0.664637654
4.30337073,2.93892626,1.02563744
4.31519318,3.53553391,1.36138237
4.32701563,4.04508497,1.66360672
4.33883807,4.45503262,1.92486885
4.35066052,4.75528258,2.1387254
4.36248297,4.9384417,2.29992768
4.37430541,5.0,2.4044929
4.38612786,4.9384417,2.44985696
4.39795031,4.75528258,2.43489614
4.40977275,4.45503262,2.35998257
4.4215952,4.04508497,2.22695993
4.43341765,3.53553391,2.03909333
4.4452401,2.93892626,1.80102225
4.45706254,2.2699525,1.51859964
4.46888499,1.54508497,1.19878839
4.48070744,0.782172325,0.849459419
4.49252988,-1.99564947e-12,0.479213919
4.50435233,-0.782172325,0.0971680554
4.51617478,-1.54508497,-0.287271104
4.52799723,-2.2699525,-0.664636345
4.53981967,-2.93892626,-1.0256356
4.55164212,-3.53553391,-1.36138029
4.56346457,-4.04508497,-1.66360318
4.57528701,-4.45503262,-1.92486354
4.58710946,-4.75528258,-2.13872795
4.59893191,-4.9384417,-2.29992672
4.61075435,-5.0,-2.40449479
4.6225768,-4.9384417,-2.44985561
4.63439925,-4.75528258,-2.43489426
4.6462217,-4.45503262,-2.35997684
4.65804414,-4.04508497,-2.22694959
4.66986659,-3.53553391,-2.03908734
4.68168904,-2.93892626,-1.80101706
4.69351148,-2.2699525,-1.51859788
4.70533393,-1.54508497,-1.19878508
4.71715638,-0.782172325,-0.849456953
4.72897883,-4.77732003e-14,-0.479211487
