TIME,Addition_2.s_out.signal[1],SensorVoltage_1.v
0.0,0.0,0.0
0.00221531073,0.782172325,0.0275641106
0.00443062146,1.54508497,0.104471447
0.00664593219,2.2699525,0.221960316
0.00886124292,2.93892626,0.371212758
0.0110765536,3.53553391,0.54344222
0.0132918644,4.04508497,0.729998954
0.0155071751,4.45503262,0.922483294
0.0177224858,4.75528258,1.11287461
0.0199377966,4.9384417,1.29365378
0.0221531073,5.0,1.45792788
0.024368418,4.9384417,1.59954172
0.0265837287,4.75528258,1.71319254
0.0287990395,4.45503262,1.79451359
0.0310143502,4.04508497,1.84014994
0.0332296609,3.53553391,1.84781106
0.0354449717,2.93892626,1.81629662
0.0376602824,2.2699525,1.74551665
0.0398755931,1.54508497,1.63646622
0.0420909038,0.782172325,1.4911828
0.0443062146,5.05319528e-15,1.31268682
0.0465215253,-0.782172325,1.10489169
0.048736836,-1.54508497,0.872499167
0.0509521468,-2.2699525,0.620872696
0.0531674575,-2.93892626,0.355899852
0.0553827682,-3.53553391,0.0838378452
0.0575980789,-4.04508497,-0.188842936
0.0598133897,-4.45503262,-0.455629283
0.0620287004,-4.75528258,-0.710121797
0.0642440111,-4.9384417,-0.946198237
0.0664593219,-5.0,-1.15817603
0.0686746326,-4.9384417,-1.34094587
0.0708899433,-4.75528258,-1.49010248
0.0731052541,-4.45503262,-1.60205299
0.0753205648,-4.04508497,-1.67411196
0.0775358755,-3.53553391,-1.70456671
0.0797511862,-2.93892626,-1.69271946
0.081966497,-2.2699525,-1.63890728
0.0841818077,-1.54508497,-1.54449428
0.0863971184,-0.782172325,-1.41184122
0.0886124292,-3.2310851e-14,-1.24424206
0.0908277399,0.782172325,-1.04584633
0.0930430506,1.54508497,-0.821561831
0.0952583613,2.2699525,-0.576930493
0.0974736721,2.93892626,-0.31799185
0.0996889828,3.53553391,-0.0511354261
0.101904294,4.04508497,0.21705556
0.104119604,4.45503262,0.479967303
0.106334915,4.75528258,0.731115708
0.108550226,4.9384417,0.964309731
0.110765536,5.0,1.1738017
0.112980847,4.9384417,1.35442851
0.115196158,4.75528258,1.50173419
0.117411469,4.45503262,1.61208927
0.119626779,4.04508497,1.68277123
0.12184209,3.53553391,1.71203754
0.124057401,2.93892626,1.69916455
0.126272712,2.2699525,1.64446747
0.128488022,1.54508497,1.54929104
0.130703333,0.782172325,1.41597717
0.132918644,5.51276147e-14,1.24780695
0.135133954,-0.782172325,1.04891966
0.137349265,-1.54508497,0.82421182
0.139564576,-2.2699525,0.579214936
0.141779887,-2.93892626,0.319961629
0.143995197,-3.53553391,0.052834434
0.146210508,-4.04508497,-0.21558989
0.148425819,-4.45503262,-0.478702376
0.15064113,-4.75528258,-0.730025312
0.15285644,-4.9384417,-0.963368615
0.155071751,-5.0,-1.17298905
0.157287062,-4.9384417,-1.35372464
0.159502372,-4.75528258,-1.50112552
0.161717683,-4.45503262,-1.61156216
0.163932994,-4.04508497,-1.68231576
0.166148305,-3.53553391,-1.71164403
0.168363615,-2.93892626,-1.69882555
0.170578926,-2.2699525,-1.64417496
0.172794237,-1.54508497,-1.54904243
0.175009548,-0.782172325,-1.41576423
0.177224858,-8.23852705e-14,-1.247627
0.179440169,0.782172325,-1.04877076
0.18165548,1.54508497,-0.824083559
0.18387079,2.2699525,-0.579104705
0.186086101,2.93892626,-0.319866561
0.188301412,3.53553391,-0.0527516751
0.190516723,4.04508497,0.21566112
0.192732033,4.45503262,0.478764016
0.194947344,4.75528258,0.730077543
0.197162655,4.9384417,0.963414273
0.199377966,5.0,1.17302795
0.201593276,4.9384417,1.35375853
0.203808587,4.75528258,1.5011557
0.206023898,4.45503262,1.61159156
0.208239209,4.04508497,1.68234661
0.210454519,3.53553391,1.7116726
0.21266983,2.93892626,1.69885121
0.214885141,2.2699525,1.64419683
0.217100451,1.54508497,1.54905756
0.219315762,0.782172325,1.41577572
0.221531073,1.09642926e-13,1.2476331
0.223746384,-0.782172325,1.04877103
0.225961694,-1.54508497,0.824084401
0.228177005,-2.2699525,0.579106671
0.230392316,-2.93892626,0.319869331
0.232607627,-3.53553391,0.0527552314
0.234822937,-4.04508497,-0.215658099
0.237038248,-4.45503262,-0.478761897
0.239253559,-4.75528258,-0.730078733
0.241468869,-4.9384417,-0.96341527
0.24368418,-5.0,-1.17302996
0.245899491,-4.9384417,-1.35375906
0.248114802,-4.75528258,-1.50115522
0.250330112,-4.45503262,-1.61158777
0.252545423,-4.04508497,-1.68233901
0.254760734,-3.53553391,-1.71166707
0.256976045,-2.93892626,-1.69884796
0.259191355,-2.2699525,-1.64420019
0.261406666,-1.54508497,-1.54906279
0.263621977,-0.782172325,-1.41578159
0.265837287,-1.28018798e-13,-1.24763822
0.268052598,0.782172325,-1.04877627
0.270267909,1.54508497,-0.824089407
0.27248322,2.2699525,-0.57911124
0.27469853,2.93892626,-0.319873308
0.276913841,3.53553391,-0.0527586465
0.279129152,4.04508497,0.215655184
0.281344463,4.45503262,0.478758228
0.283559773,4.75528258,0.730072757
0.285775084,4.9384417,0.963409898
0.287990395,5.0,1.17302445
0.290205705,4.9384417,1.35375519
0.292421016,4.75528258,1.50115174
0.294636327,4.45503262,1.61158468
0.296851638,4.04508497,1.68233491
0.299066948,3.53553391,1.71166052
0.301282259,2.93892626,1.69883927
0.30349757,2.2699525,1.6441868
0.305712881,1.54508497,1.54904895
0.307928191,0.782172325,1.41576814
0.310143502,1.64158238e-13,1.24762583
0.312358813,-0.782172325,1.04876637
0.314574123,-1.54508497,0.824081397
0.316789434,-2.2699525,0.579104306
0.319004745,-2.93892626,0.31986683
0.321220056,-3.53553391,0.0527526458
0.323435366,-4.04508497,-0.21566035
0.325650677,-4.45503262,-0.478763385
0.327865988,-4.75528258,-0.730077753
0.330081299,-4.9384417,-0.963414335
0.332296609,-5.0,-1.17303078
0.33451192,-4.9384417,-1.35376061
0.336727231,-4.75528258,-1.5011582
0.338942542,-4.45503262,-1.61159029
0.341157852,-4.04508497,-1.68234008
0.343373163,-3.53553391,-1.71166544
0.345588474,-2.93892626,-1.6988438
0.347803784,-2.2699525,-1.64419082
0.350019095,-1.54508497,-1.54905419
0.352234406,-0.782172325,-1.41577527
0.354449717,-1.82534109e-13,-1.24763232
0.356665027,0.782172325,-1.04877012
0.358880338,1.54508497,-0.824082617
0.361095649,2.2699525,-0.579103612
0.36331096,2.93892626,-0.319865497
0.36552627,3.53553391,-0.0527519456
0.367741581,4.04508497,0.215661099
0.369956892,4.45503262,0.478763787
0.372172202,4.75528258,0.730078243
0.374387513,4.9384417,0.963416242
0.376602824,5.0,1.17303073
0.378818135,4.9384417,1.35376044
0.381033445,4.75528258,1.50115714
0.383248756,4.45503262,1.61159154
0.385464067,4.04508497,1.68234095
0.387679378,3.53553391,1.71166581
0.389894688,2.93892626,1.69884372
0.392109999,2.2699525,1.64419064
0.39432531,1.54508497,1.54905228
0.39654062,0.782172325,1.4157711
0.398755931,2.18673549e-13,1.24763318
0.400971242,-0.782172325,1.0487714
0.403186553,-1.54508497,0.824086186
0.405401863,-2.2699525,0.579108269
0.407617174,-2.93892626,0.319869862
0.409832485,-3.53553391,0.0527559528
0.412047796,-4.04508497,-0.215657381
0.414263106,-4.45503262,-0.478760308
0.416478417,-4.75528258,-0.73007452
0.418693728,-4.9384417,-0.963411832
0.420909038,-5.0,-1.17302563
0.423124349,-4.9384417,-1.35375661
0.42533966,-4.75528258,-1.50115298
0.427554971,-4.45503262,-1.61158577
0.429770281,-4.04508497,-1.68233606
0.431985592,-3.53553391,-1.71166154
0.434200903,-2.93892626,-1.69884015
0.436416214,-2.2699525,-1.64418745
0.438631524,-1.54508497,-1.54904896
0.440846835,-0.782172325,-1.41576818
0.443062146,-2.37049421e-13,-1.24762656
0.445277456,0.782172325,-1.04876383
0.447492767,1.54508497,-0.8240774
0.449708078,2.2699525,-0.57909912
0.451923389,2.93892626,-0.319861083
0.454138699,3.53553391,-0.0527474834
0.45635401,4.04508497,0.215665456
0.458569321,4.45503262,0.478767292
0.460784632,4.75528258,0.73008022
0.462999942,4.9384417,0.963416658
0.465215253,5.0,1.17303063
0.467430564,4.9384417,1.35376225
0.469645875,4.75528258,1.50115743
0.471861185,4.45503262,1.61158951
0.474076496,4.04508497,1.68233906
0.476291807,3.53553391,1.71166457
0.478507117,2.93892626,1.69884119
0.480722428,2.2699525,1.64418844
0.482937739,1.54508497,1.54905042
0.48515305,0.782172325,1.41576944
0.48736836,2.73188861e-13,1.24762772
0.489583671,-0.782172325,1.0487681
0.491798982,-1.54508497,0.824084557
0.494014293,-2.2699525,0.579106545
0.496229603,-2.93892626,0.319868717
0.498444914,-3.53553391,0.0527541452
0.500660225,-4.04508497,-0.215659279
0.502875535,-4.45503262,-0.478762543
0.505090846,-4.75528258,-0.7300766
0.507306157,-4.9384417,-0.963413352
0.509521468,-5.0,-1.17302851
0.511736778,-4.9384417,-1.35376009
0.513952089,-4.75528258,-1.50115824
0.5161674,-4.45503262,-1.61159035
0.518382711,-4.04508497,-1.68234177
0.520598021,-3.53553391,-1.71167179
0.522813332,-2.93892626,-1.69885037
0.525028643,-2.2699525,-1.64419644
0.527243953,-1.54508497,-1.54905715
0.529459264,-0.782172325,-1.41577533
0.531674575,-7.34763812e-15,-1.24763356
0.533889886,0.782172325,-1.04877013
0.536105196,1.54508497,-0.824082842
0.538320507,2.2699525,-0.579103922
0.540535818,2.93892626,-0.319865818
0.542751129,3.53553391,-0.0527518001
0.544966439,4.04508497,0.215661535
0.54718175,4.45503262,0.478764036
0.549397061,4.75528258,0.73007858
0.551612371,4.9384417,0.963414925
0.553827682,5.0,1.17302848
0.556042993,4.9384417,1.3537589
0.558258304,4.75528258,1.50115468
0.560473614,4.45503262,1.61158821
0.562688925,4.04508497,1.68233821
0.564904236,3.53553391,1.71166365
0.567119547,2.93892626,1.6988422
0.569334857,2.2699525,1.64418926
0.571550168,1.54508497,1.54905417
0.573765479,0.782172325,1.41577552
0.575980789,-3.65074995e-13,1.24763263
0.5781961,-0.782172325,1.04876868
0.580411411,-1.54508497,0.824083484
0.582626722,-2.2699525,0.579105924
0.584842032,-2.93892626,0.319868147
0.587057343,-3.53553391,0.0527542108
0.589272654,-4.04508497,-0.215658836
0.591487965,-4.45503262,-0.478761809
0.593703275,-4.75528258,-0.730076206
0.595918586,-4.9384417,-0.96341386
0.598133897,-5.0,-1.17302965
0.600349208,-4.9384417,-1.35376112
0.602564518,-4.75528258,-1.50116131
0.604779829,-4.45503262,-1.61159466
0.60699514,-4.04508497,-1.68234365
0.60921045,-3.53553391,-1.71166845
0.611425761,-2.93892626,-1.69884635
0.613641072,-2.2699525,-1.64419407
0.615856383,-1.54508497,-1.5490549
0.618071693,-0.782172325,-1.4157735
0.620287004,7.37497628e-13,-1.24763122
0.622502315,0.782172325,-1.04876822
0.624717626,1.54508497,-0.824081061
0.626932936,2.2699525,-0.579102347
0.629148247,2.93892626,-0.319864618
0.631363558,3.53553391,-0.0527488733
0.633578868,4.04508497,0.215666204
0.635794179,4.45503262,0.478768071
0.63800949,4.75528258,0.730081858
0.640224801,4.9384417,0.963419256
0.642440111,5.0,1.17303316
0.644655422,4.9384417,1.35376257
0.646870733,4.75528258,1.5011577
0.649086044,4.45503262,1.61159014
0.651301354,4.04508497,1.68233948
0.653516665,3.53553391,1.71166461
0.655731976,2.93892626,1.69884409
0.657947286,2.2699525,1.64419322
0.660162597,1.54508497,1.54905747
0.662377908,0.782172325,1.4157772
0.664593219,-1.10992026e-12,1.24763629
0.666808529,-0.782172325,1.04877366
0.66902384,-1.54508497,0.824087957
0.671239151,-2.2699525,0.579108152
0.673454462,-2.93892626,0.319869852
0.675669772,-3.53553391,0.0527552135
0.677885083,-4.04508497,-0.215657805
0.680100394,-4.45503262,-0.478760511
0.682315704,-4.75528258,-0.730075137
0.684531015,-4.9384417,-0.963412691
0.686746326,-5.0,-1.17302698
0.688961637,-4.9384417,-1.35375825
0.691176947,-4.75528258,-1.50115642
0.693392258,-4.45503262,-1.61158899
0.695607569,-4.04508497,-1.68233923
0.69782288,-3.53553391,-1.71166525
0.70003819,-2.93892626,-1.69884313
0.702253501,-2.2699525,-1.6441899
0.704468812,-1.54508497,-1.54905157
0.706684122,-0.782172325,-1.41577053
0.708899433,1.48234289e-12,-1.24762854
0.711114744,0.782172325,-1.04876551
0.713330055,1.54508497,-0.82407885
0.715545365,2.2699525,-0.579100354
0.717760676,2.93892626,-0.319862101
0.719975987,3.53553391,-0.0527480326
0.722191298,4.04508497,0.21566433
0.724406608,4.45503262,0.478766969
0.726621919,4.75528258,0.730080996
0.72883723,4.9384417,0.963417335
0.731052541,5.0,1.17303067
0.733267851,4.9384417,1.35376082
0.735483162,4.75528258,1.50115683
0.737698473,4.45503262,1.6115893
0.739913783,4.04508497,1.6823393
0.742129094,3.53553391,1.71166483
0.744344405,2.93892626,1.69884306
0.746559716,2.2699525,1.64419011
0.748775026,1.54508497,1.54905175
0.750990337,0.782172325,1.41577061
0.753205648,-1.85476553e-12,1.24762852
0.755420959,-0.782172325,1.04876594
0.757636269,-1.54508497,0.824078712
0.75985158,-2.2699525,0.579100508
0.762066891,-2.93892626,0.319862657
0.764282201,-3.53553391,0.052749169
0.766497512,-4.04508497,-0.21566356
0.768712823,-4.45503262,-0.478765562
0.770928134,-4.75528258,-0.730079235
0.773143444,-4.9384417,-0.963415927
0.775358755,-5.0,-1.17303007
0.777574066,-4.9384417,-1.35376068
0.779789377,-4.75528258,-1.50115834
0.782004687,-4.45503262,-1.61159167
0.784219998,-4.04508497,-1.68234139
0.786435309,-3.53553391,-1.71166677
0.788650619,-2.93892626,-1.69884463
0.79086593,-2.2699525,-1.64419147
0.793081241,-1.54508497,-1.54905286
0.795296552,-0.782172325,-1.41577169
0.797511862,2.22718816e-12,-1.24762956
0.799727173,0.782172325,-1.04876677
0.801942484,1.54508497,-0.824082776
0.804157795,2.2699525,-0.579108091
0.806373105,2.93892626,-0.319870182
0.808588416,3.53553391,-0.0527559131
0.810803727,4.04508497,0.215655912
0.813019037,4.45503262,0.478759694
0.815234348,4.75528258,0.73007439
0.817449659,4.9384417,0.963413024
0.81966497,5.0,1.17302776
0.82188028,4.9384417,1.35375802
0.824095591,4.75528258,1.50115375
0.826310902,4.45503262,1.61158666
0.828526213,4.04508497,1.68233668
0.830741523,3.53553391,1.7116621
0.832956834,2.93892626,1.69884064
0.835172145,2.2699525,1.64418803
0.837387455,1.54508497,1.54905066
0.839602766,0.782172325,1.41577228
0.841818077,-2.59961079e-12,1.24763326
0.844033388,-0.782172325,1.0487726
0.846248698,-1.54508497,0.824089568
0.848464009,-2.2699525,0.579110961
0.85067932,-2.93892626,0.319873713
0.852894631,-3.53553391,0.0527593383
0.855109941,-4.04508497,-0.215654546
0.857325252,-4.45503262,-0.478758062
0.859540563,-4.75528258,-0.730072422
0.861755874,-4.9384417,-0.963409613
0.863971184,-5.0,-1.17302426
0.866186495,-4.9384417,-1.35375494
0.868401806,-4.75528258,-1.5011515
0.870617116,-4.45503262,-1.61158476
0.872832427,-4.04508497,-1.6823362
0.875047738,-3.53553391,-1.7116618
0.877263049,-2.93892626,-1.69884174
0.879478359,-2.2699525,-1.64419135
0.88169367,-1.54508497,-1.54905298
0.883908981,-0.782172325,-1.41577155
0.886124292,-4.77732003e-14,-1.24762928
