TIME,Addition_2.s_out.signal[1],SensorVoltage_1.v
0.0,0.0,0.0
0.00152692775,0.782172325,0.019285902
0.00305385551,1.54508497,0.0741597941
0.00458078326,2.2699525,0.159780136
0.00610771102,2.93892626,0.270886125
0.00763463877,3.53553391,0.401894564
0.00916156653,4.04508497,0.547008112
0.0106884943,4.45503262,0.7003306
0.012215422,4.75528258,0.855989263
0.0137423498,4.9384417,1.00825534
0.0152692775,5.0,1.15166602
0.0167962053,4.9384417,1.2811458
0.0183231331,4.75528258,1.39211093
0.0198500608,4.45503262,1.48056743
0.0213769886,4.04508497,1.54319932
0.0229039163,3.53553391,1.57743534
0.0244308441,2.93892626,1.58150069
0.0259577718,2.2699525,1.55445621
0.0274846996,1.54508497,1.49621004
0.0290116273,0.782172325,1.40751256
0.0305385551,-6.04903497e-15,1.2899293
0.0320654828,-0.782172325,1.14579809
0.0335924106,-1.54508497,0.978163165
0.0351193384,-2.2699525,0.790693629
0.0366462661,-2.93892626,0.587594469
0.0381731939,-3.53553391,0.373498337
0.0397001216,-4.04508497,0.153338318
0.0412270494,-4.45503262,-0.0677668547
0.0427539771,-4.75528258,-0.284646747
0.0442809049,-4.9384417,-0.492209032
0.0458078326,-5.0,-0.685566122
0.0473347604,-4.9384417,-0.86015877
0.0488616881,-4.75528258,-1.01187136
0.0503886159,-4.45503262,-1.13713046
0.0519155437,-4.04508497,-1.23300157
0.0534424714,-3.53553391,-1.29725729
0.0549693992,-2.93892626,-1.32843778
0.0564963269,-2.2699525,-1.3258853
0.0580232547,-1.54508497,-1.28976146
0.0595501824,-0.782172325,-1.22104528
0.0610771102,-1.01063906e-14,-1.12150954
0.0626040379,0.782172325,-0.993677797
0.0641309657,1.54508497,-0.840763587
0.0656578934,2.2699525,-0.666591903
0.0671848212,2.93892626,-0.47550464
0.0687117489,3.53553391,-0.272256291
0.0702386767,4.04508497,-0.0618943999
0.0717656045,4.45503262,0.150360375
0.0732925322,4.75528258,0.359247338
0.07481946,4.9384417,0.559588927
0.0763463877,5.0,0.74642377
0.0778733155,4.9384417,0.915125611
0.0794002432,4.75528258,1.06151692
0.080927171,4.45503262,1.181971
0.0824540987,4.04508497,1.27350089
0.0839810265,3.53553391,1.33383724
0.0855079542,2.93892626,1.3614789
0.087034882,2.2699525,1.35572834
0.0885618098,1.54508497,1.31671616
0.0900887375,0.782172325,1.24539061
0.0916156653,2.84822621e-14,1.14349833
0.093142593,-0.782172325,1.01353835
0.0946695208,-1.54508497,0.858701655
0.0961964485,-2.2699525,0.682793656
0.0977233763,-2.93892626,0.49014058
0.099250304,-3.53553391,0.285478515
0.100777232,-4.04508497,0.073837923
0.10230416,-4.45503262,-0.139572693
0.103831087,-4.75528258,-0.349502984
0.105358015,-4.9384417,-0.550787951
0.106884943,-5.0,-0.738474686
0.108411871,-4.9384417,-0.90794552
0.109938798,-4.75528258,-1.05503089
0.111465726,-4.45503262,-1.17611101
0.112992654,-4.04508497,-1.26820842
0.114519582,-3.53553391,-1.3290567
0.116046509,-2.93892626,-1.35716012
0.117573437,-2.2699525,-1.35182799
0.119100365,-1.54508497,-1.31319336
0.120627293,-0.782172325,-1.24220905
0.12215422,-5.57399179e-14,-1.14062475
0.123681148,0.782172325,-1.01094365
0.125208076,1.54508497,-0.856360376
0.126735004,2.2699525,-0.680679908
0.128261931,2.93892626,-0.488231205
0.129788859,3.53553391,-0.283751429
0.131315787,4.04508497,-0.0722779511
0.132842715,4.45503262,0.140981583
0.134369642,4.75528258,0.35077563
0.13589657,4.9384417,0.551937048
0.137423498,5.0,0.739513003
0.138950426,4.9384417,0.908883892
0.140477353,4.75528258,1.05587853
0.142004281,4.45503262,1.17687733
0.143531209,4.04508497,1.2689005
0.145058137,3.53553391,1.32968159
0.146585064,2.93892626,1.35772401
0.148111992,2.2699525,1.35233711
0.14963892,1.54508497,1.31365317
0.151165848,0.782172325,1.24262457
0.152692775,-5.91109735e-14,1.14100009
0.154219703,-0.782172325,1.01128244
0.155746631,-1.54508497,0.856665455
0.157273559,-2.2699525,0.680954907
0.158800486,-2.93892626,0.488477614
0.160327414,-3.53553391,0.28397367
0.161854342,-4.04508497,0.0724784074
0.16338127,-4.45503262,-0.140800705
0.164908197,-4.75528258,-0.350612776
0.166435125,-4.9384417,-0.551790077
0.167962053,-5.0,-0.739379523
0.169488981,-4.9384417,-0.908763049
0.171015908,-4.75528258,-1.05576967
0.172542836,-4.45503262,-1.1767798
0.174069764,-4.04508497,-1.26881269
0.175596692,-3.53553391,-1.3296023
0.17712362,-2.93892626,-1.35765277
0.178650547,-2.2699525,-1.35227295
0.180177475,-1.54508497,-1.31359522
0.181704403,-0.782172325,-1.24257223
0.183231331,1.73961865e-13,-1.14095282
0.184758258,0.782172325,-1.0112391
0.186285186,1.54508497,-0.856627035
0.187812114,2.2699525,-0.680922317
0.189339042,2.93892626,-0.488449417
0.190865969,3.53553391,-0.283948643
0.192392897,4.04508497,-0.0724558304
0.193919825,4.45503262,0.140820726
0.195446753,4.75528258,0.350630147
0.19697368,4.9384417,0.551805864
0.198500608,5.0,0.739394594
0.200027536,4.9384417,0.908776711
0.201554464,4.75528258,1.05578155
0.203081391,4.45503262,1.17679057
0.204608319,4.04508497,1.26882308
0.206135247,3.53553391,1.32961167
0.207662175,2.93892626,1.35766091
0.209189102,2.2699525,1.35228003
0.21071603,1.54508497,1.31360159
0.212242958,0.782172325,1.24257798
0.213769886,-2.9769454e-13,1.14095889
0.215296813,-0.782172325,1.0112471
0.216823741,-1.54508497,0.856635523
0.218350669,-2.2699525,0.680928613
0.219877597,-2.93892626,0.488454217
0.221404524,-3.53553391,0.283952511
0.222931452,-4.04508497,0.0724592915
0.22445838,-4.45503262,-0.140818189
0.225985308,-4.75528258,-0.350628411
0.227512235,-4.9384417,-0.551804262
0.229039163,-5.0,-0.739392863
0.230566091,-4.9384417,-0.908774305
0.232093019,-4.75528258,-1.05578047
0.233619946,-4.45503262,-1.17679002
0.235146874,-4.04508497,-1.26882264
0.236673802,-3.53553391,-1.32961113
0.23820073,-2.93892626,-1.35766075
0.239727657,-2.2699525,-1.35228094
0.241254585,-1.54508497,-1.31360218
0.242781513,-0.782172325,-1.24257767
0.244308441,4.21427216e-13,-1.14095765
0.245835368,0.782172325,-1.01124356
0.247362296,1.54508497,-0.856629357
0.248889224,2.2699525,-0.680922018
0.250416152,2.93892626,-0.488448284
0.251943079,3.53553391,-0.283947234
0.253470007,4.04508497,-0.0724546505
0.254996935,4.45503262,0.140821832
0.256523863,4.75528258,0.350631755
0.25805079,4.9384417,0.551808
0.259577718,5.0,0.739396533
0.261104646,4.9384417,0.908777882
0.262631574,4.75528258,1.05578271
0.264158502,4.45503262,1.17679073
0.265685429,4.04508497,1.26882191
0.267212357,3.53553391,1.32961078
0.268739285,2.93892626,1.35766005
0.270266213,2.2699525,1.3522795
0.27179314,1.54508497,1.31360114
0.273320068,0.782172325,1.24257758
0.274846996,-2.96469934e-13,1.14095759
0.276373924,-0.782172325,1.01124351
0.277900851,-1.54508497,0.856629186
0.279427779,-2.2699525,0.680922004
0.280954707,-2.93892626,0.488447198
0.282481635,-3.53553391,0.283942906
0.284008562,-4.04508497,0.0724506295
0.28553549,-4.45503262,-0.140825341
0.287062418,-4.75528258,-0.350634538
0.288589346,-4.9384417,-0.551809759
0.290116273,-5.0,-0.739398059
0.291643201,-4.9384417,-0.908779609
0.293170129,-4.75528258,-1.05578486
0.294697057,-4.45503262,-1.17679207
0.296223984,-4.04508497,-1.26882404
0.297750912,-3.53553391,-1.32961406
0.29927784,-2.93892626,-1.35766503
0.300804768,-2.2699525,-1.35228643
0.302331695,-1.54508497,-1.31361084
0.303858623,-0.782172325,-1.24258625
0.305385551,1.35985515e-13,-1.14096541
0.306912479,0.782172325,-1.01125058
0.308439406,1.54508497,-0.856635593
0.309966334,2.2699525,-0.68092775
0.311493262,2.93892626,-0.48845343
0.31302019,3.53553391,-0.283951919
0.314547117,4.04508497,-0.0724587279
0.316074045,4.45503262,0.14081843
0.317600973,4.75528258,0.350628046
0.319127901,4.9384417,0.551803852
0.320654828,5.0,0.739392275
0.322181756,4.9384417,0.908774305
0.323708684,4.75528258,1.05577918
0.325235612,4.45503262,1.17678719
0.326762539,4.04508497,1.26881903
0.328289467,3.53553391,1.32960876
0.329816395,2.93892626,1.35765978
0.331343323,2.2699525,1.35228079
0.33287025,1.54508497,1.31360439
0.334397178,0.782172325,1.24258338
0.335924106,2.44989033e-14,1.14096526
0.337451034,-0.782172325,1.01125275
0.338977961,-1.54508497,0.856638523
0.340504889,-2.2699525,0.680930065
0.342031817,-2.93892626,0.488455399
0.343558745,-3.53553391,0.283953006
0.345085672,-4.04508497,0.0724597379
0.3466126,-4.45503262,-0.140817549
0.348139528,-4.75528258,-0.350627382
0.349666456,-4.9384417,-0.551804366
0.351193384,-5.0,-0.739393827
0.352720311,-4.9384417,-0.908776779
0.354247239,-4.75528258,-1.05578152
0.355774167,-4.45503262,-1.17678942
0.357301095,-4.04508497,-1.26882186
0.358828022,-3.53553391,-1.32961062
0.36035495,-2.93892626,-1.35766026
0.361881878,-2.2699525,-1.35228069
0.363408806,-1.54508497,-1.31360307
0.364935733,-0.782172325,-1.24257945
0.366462661,-1.84983322e-13,-1.14096035
0.367989589,0.782172325,-1.0112455
0.369516517,1.54508497,-0.856631252
0.371043444,2.2699525,-0.680924885
0.372570372,2.93892626,-0.488452257
0.3740973,3.53553391,-0.283950962
0.375624228,4.04508497,-0.0724583095
0.377151155,4.45503262,0.140818796
0.378678083,4.75528258,0.350628336
0.380205011,4.9384417,0.551804134
0.381731939,5.0,0.739393178
0.383258866,4.9384417,0.908776734
0.384785794,4.75528258,1.0557823
0.386312722,4.45503262,1.17679171
0.38783965,4.04508497,1.26882397
0.389366577,3.53553391,1.32961589
0.390893505,2.93892626,1.35766366
0.392420433,2.2699525,1.35228601
0.393947361,1.54508497,1.31360988
0.395474288,0.782172325,1.2425873
0.397001216,3.45467741e-13,1.14096788
0.398528144,-0.782172325,1.01125608
0.400055072,-1.54508497,0.856646005
0.401581999,-2.2699525,0.680938753
0.403108927,-2.93892626,0.488464146
0.404635855,-3.53553391,0.283963016
0.406162783,-4.04508497,0.0724694276
0.40768971,-4.45503262,-0.140808576
0.409216638,-4.75528258,-0.350619304
0.410743566,-4.9384417,-0.551796124
0.412270494,-5.0,-0.739386014
0.413797421,-4.9384417,-0.908768583
0.415324349,-4.75528258,-1.05577432
0.416851277,-4.45503262,-1.17678298
0.418378205,-4.04508497,-1.26881536
0.419905132,-3.53553391,-1.32960468
0.42143206,-2.93892626,-1.3576561
0.422958988,-2.2699525,-1.35227796
0.424485916,-1.54508497,-1.31360124
0.426012843,-0.782172325,-1.24258026
0.427539771,-5.0595216e-13,-1.14096181
0.429066699,0.782172325,-1.01124662
0.430593627,1.54508497,-0.856632877
0.432120555,2.2699525,-0.680924171
0.433647482,2.93892626,-0.488451634
0.43517441,3.53553391,-0.283949733
0.436701338,4.04508497,-0.0724568834
0.438228266,4.45503262,0.140819799
0.439755193,4.75528258,0.350628633
0.441282121,4.9384417,0.551804447
0.442809049,5.0,0.739392756
0.444335977,4.9384417,0.908775233
0.445862904,4.75528258,1.05578016
0.447389832,4.45503262,1.17678849
0.44891676,4.04508497,1.26882122
0.450443688,3.53553391,1.32961006
0.451970615,2.93892626,1.35765974
0.453497543,2.2699525,1.35227956
0.455024471,1.54508497,1.31360116
0.456551399,0.782172325,1.24257763
0.458078326,6.66436578e-13,1.14095764
0.459605254,-0.782172325,1.01124355
0.461132182,-1.54508497,0.856629094
0.46265911,-2.2699525,0.680921858
0.464186037,-2.93892626,0.488447572
0.465712965,-3.53553391,0.283947153
0.467239893,-4.04508497,0.0724548718
0.468766821,-4.45503262,-0.140822374
0.470293748,-4.75528258,-0.350631699
0.471820676,-4.9384417,-0.551807369
0.473347604,-5.0,-0.739395566
0.474874532,-4.9384417,-0.908777362
0.476401459,-4.75528258,-1.05578238
0.477928387,-4.45503262,-1.17679038
0.479455315,-4.04508497,-1.26882253
0.480982243,-3.53553391,-1.32961144
0.48250917,-2.93892626,-1.35766068
0.484036098,-2.2699525,-1.35227983
0.485563026,-1.54508497,-1.31360142
0.487089954,-0.782172325,-1.24257786
0.488616881,-8.26920997e-13,-1.1409579
0.490143809,0.782172325,-1.01124524
0.491670737,1.54508497,-0.856633192
0.493197665,2.2699525,-0.680926811
0.494724592,2.93892626,-0.488452602
0.49625152,3.53553391,-0.283951086
0.497778448,4.04508497,-0.0724582531
0.499305376,4.45503262,0.14081895
0.500832303,4.75528258,0.350629362
0.502359231,4.9384417,0.551805229
0.503886159,5.0,0.739394316
0.505413087,4.9384417,0.908775955
0.506940014,4.75528258,1.05578089
0.508466942,4.45503262,1.17678918
0.50999387,4.04508497,1.26882152
0.511520798,3.53553391,1.32961058
0.513047725,2.93892626,1.35765989
0.514574653,2.2699525,1.35227915
0.516101581,1.54508497,1.31360207
0.517628509,0.782172325,1.24258177
0.519155437,6.67661185e-13,1.140965
0.520682364,-0.782172325,1.01125158
0.522209292,-1.54508497,0.856635597
0.52373622,-2.2699525,0.680928022
0.525263148,-2.93892626,0.488453549
0.526790075,-3.53553391,0.283951943
0.528317003,-4.04508497,0.0724578362
0.529843931,-4.45503262,-0.140819125
0.531370859,-4.75528258,-0.350628831
0.532897786,-4.9384417,-0.551804737
0.534424714,-5.0,-0.739393178
0.535951642,-4.9384417,-0.908775732
0.53747857,-4.75528258,-1.05578271
0.539005497,-4.45503262,-1.17679183
0.540532425,-4.04508497,-1.26882474
0.542059353,-3.53553391,-1.32961393
0.543586281,-2.93892626,-1.35766351
0.545113208,-2.2699525,-1.35228244
0.546640136,-1.54508497,-1.31360378
0.548167064,-0.782172325,-1.24257989
0.549693992,-2.59711415e-13,-1.14095957
0.551220919,0.782172325,-1.01124531
0.552747847,1.54508497,-0.856630898
0.554274775,2.2699525,-0.680923242
0.555801703,2.93892626,-0.488449347
0.55732863,3.53553391,-0.28394678
0.558855558,4.04508497,-0.0724523456
0.560382486,4.45503262,0.14082472
0.561909414,4.75528258,0.350633821
0.563436341,4.9384417,0.551809729
0.564963269,5.0,0.739394741
0.566490197,4.9384417,0.908778085
0.568017125,4.75528258,1.05578643
0.569544052,4.45503262,1.17679707
0.57107098,4.04508497,1.26882938
0.572597908,3.53553391,1.32961883
0.574124836,2.93892626,1.3576673
0.575651763,2.2699525,1.35228591
0.577178691,1.54508497,1.31360692
0.578705619,0.782172325,1.24258279
0.580232547,-1.48238355e-13,1.14096239
0.581759474,-0.782172325,1.01124784
0.583286402,-1.54508497,0.856633092
0.58481333,-2.2699525,0.680925521
0.586340258,-2.93892626,0.488450989
0.587867185,-3.53553391,0.283949728
0.589394113,-4.04508497,0.0724564792
0.590921041,-4.45503262,-0.140820714
0.592447969,-4.75528258,-0.350630331
0.593974896,-4.9384417,-0.551806325
0.595501824,-5.0,-0.739394745
0.597028752,-4.9384417,-0.908777432
0.59855568,-4.75528258,-1.05578343
0.600082607,-4.45503262,-1.17679194
0.601609535,-4.04508497,-1.26882442
0.603136463,-3.53553391,-1.32961412
0.604663391,-2.93892626,-1.35766522
0.606190319,-2.2699525,-1.35228772
0.607717246,-1.54508497,-1.31361063
0.609244174,-0.782172325,-1.24258739
0.610771102,-1.22460635e-14,-1.14096808
