TIME,Addition_2.s_out.signal[1],SensorVoltage_1.v
0.0,0.0,0.0
0.00121006413,0.782172325,0.0153901974
0.00242012826,1.54508497,0.0595813978
0.0036301924,2.2699525,0.129223939
0.00484025653,2.93892626,0.220516736
0.00605032066,3.53553391,0.329287292
0.00726038479,4.04508497,0.451081921
0.00847044893,4.45503262,0.58126444
0.00968051306,4.75528258,0.715117261
0.0108905772,4.9384417,0.847952163
0.0121006413,5.0,0.975213187
0.0133107055,4.9384417,1.09257807
0.0145207696,4.75528258,1.19606431
0.0157308337,4.45503262,1.2821131
0.0169408979,4.04508497,1.34767566
0.018150962,3.53553391,1.39027751
0.0193610261,2.93892626,1.40807789
0.0205710903,2.2699525,1.39990734
0.0217811544,1.54508497,1.36529307
0.0229912185,0.782172325,1.30446536
0.0242012826,5.05319528e-15,1.21834809
0.0254113468,-0.782172325,1.10853229
0.0266214109,-1.54508497,0.977234623
0.027831475,-2.2699525,0.827235649
0.0290415392,-2.93892626,0.661814407
0.0302516033,-3.53553391,0.484660494
0.0314616674,-4.04508497,0.299782489
0.0326717316,-4.45503262,0.111405166
0.0338817957,-4.75528258,-0.076133136
0.0350918598,-4.9384417,-0.258490165
0.036301924,-5.0,-0.431433638
0.0375119881,-4.9384417,-0.590941513
0.0387220522,-4.75528258,-0.733305252
0.0399321164,-4.45503262,-0.85521987
0.0411421805,-4.04508497,-0.953867474
0.0423522446,-3.53553391,-1.0269921
0.0435623088,-2.93892626,-1.07295194
0.0447723729,-2.2699525,-1.09075614
0.045982437,-1.54508497,-1.08010184
0.0471925012,-0.782172325,-1.04137701
0.0484025653,-1.45472826e-14,-0.975649888
0.0496126294,0.782172325,-0.884644052
0.0508226936,1.54508497,-0.770697432
0.0520327577,2.2699525,-0.636705964
0.0532428218,2.93892626,-0.486051477
0.054452886,3.53553391,-0.322519906
0.0556629501,4.04508497,-0.150208196
0.0568730142,4.45503262,0.0265758763
0.0580830784,4.75528258,0.203418717
0.0592931425,4.9384417,0.375910618
0.0605032066,5.0,0.539754009
0.0617132708,4.9384417,0.69086769
0.0629233349,4.75528258,0.825487813
0.064133399,4.45503262,0.940257215
0.0653434631,4.04508497,1.03231372
0.0665535273,3.53553391,1.09935558
0.0677635914,2.93892626,1.13970276
0.0689736555,2.2699525,1.15233313
0.0701837197,1.54508497,1.13690808
0.0713937838,0.782172325,1.09378218
0.0726038479,-1.59266589e-14,1.02399355
0.0738139121,-0.782172325,0.929240972
0.0750239762,-1.54508497,0.811838191
0.0762340403,-2.2699525,0.674658087
0.0774441045,-2.93892626,0.521061797
0.0786541686,-3.53553391,0.354816957
0.0798642327,-4.04508497,0.18000197
0.0810742969,-4.45503262,0.000909084628
0.082284361,-4.75528258,-0.178063979
0.0834944251,-4.9384417,-0.352521164
0.0847044893,-5.0,-0.518178016
0.0859145534,-4.9384417,-0.670965398
0.0871246175,-4.75528258,-0.807126673
0.0883346817,-4.45503262,-0.923318939
0.0895447458,-4.04508497,-1.01668665
0.0907548099,-3.53553391,-1.08494172
0.0919648741,-2.93892626,-1.12640626
0.0931749382,-2.2699525,-1.14006678
0.0943850023,-1.54508497,-1.12559266
0.0955950665,-0.782172325,-1.08334403
0.0968051306,1.04132198e-13,-1.01436436
0.0980151947,0.782172325,-0.920358083
0.0992252589,1.54508497,-0.803643778
0.100435323,2.2699525,-0.667098808
0.101645387,2.93892626,-0.514088765
0.102855451,3.53553391,-0.348384218
0.104065515,4.04508497,-0.174068041
0.10527558,4.45503262,0.00456487301
0.106485644,4.75528258,0.183113453
0.107695708,4.9384417,0.357179164
0.108905772,5.0,0.522474387
0.110115836,4.9384417,0.674927662
0.1113259,4.75528258,0.810783276
0.112535964,4.45503262,0.926693735
0.113746028,4.04508497,1.01980124
0.114956093,3.53553391,1.08781359
0.116166157,2.93892626,1.12905519
0.117376221,2.2699525,1.14250965
0.118586285,1.54508497,1.12784439
0.119796349,0.782172325,1.08541962
0.121006413,-1.83455952e-13,1.01628017
0.122216477,-0.782172325,0.922127095
0.123426542,-1.54508497,0.805276727
0.124636606,-2.2699525,0.668604961
0.12584667,-2.93892626,0.515480017
0.127056734,-3.53553391,0.349668486
0.128266798,-4.04508497,0.175253169
0.129476862,-4.45503262,-0.00347177583
0.130686926,-4.75528258,-0.182105294
0.13189699,-4.9384417,-0.356249156
0.133107055,-5.0,-0.52161629
0.134317119,-4.9384417,-0.674134768
0.135527183,-4.75528258,-0.81004959
0.136737247,-4.45503262,-0.926015203
0.137947311,-4.04508497,-1.0191759
0.139157375,-3.53553391,-1.08723674
0.140367439,-2.93892626,-1.12852437
0.141577503,-2.2699525,-1.14202156
0.142787568,-1.54508497,-1.12739561
0.143997632,-0.782172325,-1.08500566
0.145207696,1.02907591e-13,-1.01589775
0.14641776,0.782172325,-0.921775499
0.147627824,1.54508497,-0.804953273
0.148837888,2.2699525,-0.668307778
0.150047952,2.93892626,-0.515204042
0.151258017,3.53553391,-0.349413097
0.152468081,4.04508497,-0.175017729
0.153678145,4.45503262,0.0036880985
0.154888209,4.75528258,0.182304618
0.156098273,4.9384417,0.356433134
0.157308337,5.0,0.521785828
0.158518401,4.9384417,0.674290956
0.159728465,4.75528258,0.810193727
0.16093853,4.45503262,0.926147422
0.162148594,4.04508497,1.01929658
0.163358658,3.53553391,1.08734816
0.164568722,2.93892626,1.12862619
0.165778786,2.2699525,1.14211454
0.16698885,1.54508497,1.12748142
0.168198914,0.782172325,1.08508635
0.169408979,-1.34774462e-14,1.01597329
0.170619043,-0.782172325,0.921844761
0.171829107,-1.54508497,0.805017768
0.173039171,-2.2699525,0.668367103
0.174249235,-2.93892626,0.515258411
0.175459299,-3.53553391,0.349462446
0.176669363,-4.04508497,0.17506268
0.177879427,-4.45503262,-0.00364695532
0.179089492,-4.75528258,-0.182267016
0.180299556,-4.9384417,-0.356398587
0.18150962,-5.0,-0.521754056
0.182719684,-4.9384417,-0.674261895
0.183929748,-4.75528258,-0.810166666
0.185139812,-4.45503262,-0.926122794
0.186349876,-4.04508497,-1.01927411
0.187559941,-3.53553391,-1.08732774
0.188770005,-2.93892626,-1.12860766
0.189980069,-2.2699525,-1.14209735
0.191190133,-1.54508497,-1.1274641
0.192400197,-0.782172325,-1.08506882
0.193610261,-9.37162674e-14,-1.01595549
0.194820325,0.782172325,-0.921825881
0.196030389,1.54508497,-0.804997793
0.197240454,2.2699525,-0.668347906
0.198450518,2.93892626,-0.515240934
0.199660582,3.53553391,-0.349446746
0.200870646,4.04508497,-0.175048137
0.20208071,4.45503262,0.00366087747
0.203290774,4.75528258,0.182279754
0.204500838,4.9384417,0.356410567
0.205710903,5.0,0.521764896
0.206920967,4.9384417,0.674271677
0.208131031,4.75528258,0.81017587
0.209341095,4.45503262,0.926131038
0.210551159,4.04508497,1.01928204
0.211761223,3.53553391,1.08733485
0.212971287,2.93892626,1.12861362
0.214181351,2.2699525,1.14210227
0.215391416,1.54508497,1.12746863
0.21660148,0.782172325,1.085073
0.217811544,1.83146413e-13,1.01595919
0.219021608,-0.782172325,0.921830554
0.220231672,-1.54508497,0.805004185
0.221441736,-2.2699525,0.668355522
0.2226518,-2.93892626,0.51524896
0.223861864,-3.53553391,0.349453654
0.225071929,-4.04508497,0.175054957
0.226281993,-4.45503262,-0.00365364809
0.227492057,-4.75528258,-0.182273079
0.228702121,-4.9384417,-0.356404394
0.229912185,-5.0,-0.521760188
0.231122249,-4.9384417,-0.674267498
0.232332313,-4.75528258,-0.810172378
0.233542378,-4.45503262,-0.926127834
0.234752442,-4.04508497,-1.01927863
0.235962506,-3.53553391,-1.08733154
0.23717257,-2.93892626,-1.12861058
0.238382634,-2.2699525,-1.14209947
0.239592698,-1.54508497,-1.12746603
0.240802762,-0.782172325,-1.08507055
0.242012826,-2.90340126e-13,-1.01595706
0.243222891,0.782172325,-0.921827272
0.244432955,1.54508497,-0.804999106
0.245643019,2.2699525,-0.668349068
0.246853083,2.93892626,-0.515241859
0.248063147,3.53553391,-0.349448125
0.249273211,4.04508497,-0.175049542
0.250483275,4.45503262,0.00365944185
0.25169334,4.75528258,0.182278123
0.252903404,4.9384417,0.356408823
0.254113468,5.0,0.521763892
0.255323532,4.9384417,0.67427084
0.256533596,4.75528258,0.810175082
0.25774366,4.45503262,0.926130197
0.258953724,4.04508497,1.01928058
0.260163788,3.53553391,1.08733322
0.261373853,2.93892626,1.12861215
0.262583917,2.2699525,1.14210119
0.263793981,1.54508497,1.12746761
0.265004045,0.782172325,1.08507204
0.266214109,3.79770271e-13,1.01595847
0.267424173,-0.782172325,0.921828622
0.268634237,-1.54508497,0.805003912
0.269844302,-2.2699525,0.668357192
0.271054366,-2.93892626,0.515250302
0.27226443,-3.53553391,0.349455618
0.273474494,-4.04508497,0.17505663
0.274684558,-4.45503262,-0.0036528354
0.275894622,-4.75528258,-0.182272041
0.277104686,-4.9384417,-0.356403073
0.27831475,-5.0,-0.521759169
0.279524815,-4.9384417,-0.674266867
0.280734879,-4.75528258,-0.810171676
0.281944943,-4.45503262,-0.926127994
0.283155007,-4.04508497,-1.01927918
0.284365071,-3.53553391,-1.08733193
0.285575135,-2.93892626,-1.1286113
0.286785199,-2.2699525,-1.14210011
0.287995264,-1.54508497,-1.12746657
0.289205328,-0.782172325,-1.0850711
0.290415392,-4.69200416e-13,-1.01595753
0.291625456,0.782172325,-0.921827623
0.29283552,1.54508497,-0.804999881
0.294045584,2.2699525,-0.668352833
0.295255648,2.93892626,-0.515245153
0.296465712,3.53553391,-0.349450909
0.297675777,4.04508497,-0.175051077
0.298885841,4.45503262,0.00365819374
0.300095905,4.75528258,0.182277322
0.301305969,4.9384417,0.356408227
0.302516033,5.0,0.521762636
0.303726097,4.9384417,0.674270207
0.304936161,4.75528258,0.810173997
0.306146225,4.45503262,0.926129587
0.30735629,4.04508497,1.0192807
0.308566354,3.53553391,1.08733426
0.309776418,2.93892626,1.12861367
0.310986482,2.2699525,1.14210232
0.312196546,1.54508497,1.12746867
0.31340661,0.782172325,1.08507301
0.314616674,5.58630562e-13,1.01595922
0.315826739,-0.782172325,0.921829951
0.317036803,-1.54508497,0.805003487
0.318246867,-2.2699525,0.668353438
0.319456931,-2.93892626,0.515246143
0.320666995,-3.53553391,0.349452874
0.321877059,-4.04508497,0.175055482
0.323087123,-4.45503262,-0.00365368611
0.324297187,-4.75528258,-0.182270168
0.325507252,-4.9384417,-0.356401633
0.326717316,-5.0,-0.521758436
0.32792738,-4.9384417,-0.67426577
0.329137444,-4.75528258,-0.8101703
0.330347508,-4.45503262,-0.926125761
0.331557572,-4.04508497,-1.01927692
0.332767636,-3.53553391,-1.08733046
0.333977701,-2.93892626,-1.12861082
0.335187765,-2.2699525,-1.14210129
0.336397829,-1.54508497,-1.12746926
0.337607893,-0.782172325,-1.08507544
0.338817957,-6.48060707e-13,-1.0159633
0.340028021,0.782172325,-0.921833939
0.341238085,1.54508497,-0.805006303
0.342448149,2.2699525,-0.668355737
0.343658214,2.93892626,-0.515247607
0.344868278,3.53553391,-0.349452676
0.346078342,4.04508497,-0.175053778
0.347288406,4.45503262,0.00365578784
0.34849847,4.75528258,0.182276921
0.349708534,4.9384417,0.356407578
0.350918598,5.0,0.521761964
0.352128663,4.9384417,0.674269165
0.353338727,4.75528258,0.81017443
0.354548791,4.45503262,0.926129704
0.355758855,4.04508497,1.01928097
0.356968919,3.53553391,1.08733436
0.358178983,2.93892626,1.12861443
0.359389047,2.2699525,1.14210588
0.360599111,1.54508497,1.12747702
0.361809176,0.782172325,1.08508259
0.36301924,7.73017989e-13,1.01596983
0.364229304,-0.782172325,0.921839045
0.365439368,-1.54508497,0.805009825
0.366649432,-2.2699525,0.668359299
0.367859496,-2.93892626,0.515250896
0.36906956,-3.53553391,0.349454912
0.370279625,-4.04508497,0.175056096
0.371489689,-4.45503262,-0.00365371704
0.372699753,-4.75528258,-0.182272983
0.373909817,-4.9384417,-0.356404349
0.375119881,-5.0,-0.521760232
0.376329945,-4.9384417,-0.674267469
0.377540009,-4.75528258,-0.810172001
0.378750073,-4.45503262,-0.926127481
0.379960138,-4.04508497,-1.01927928
0.381170202,-3.53553391,-1.08733267
0.382380266,-2.93892626,-1.12861095
0.38359033,-2.2699525,-1.14210071
0.384800394,-1.54508497,-1.12746682
0.386010458,-0.782172325,-1.08507137
0.387220522,-8.62448134e-13,-1.01595876
0.388430586,0.782172325,-0.921831166
0.389640651,1.54508497,-0.805003127
0.390850715,2.2699525,-0.66835284
0.392060779,2.93892626,-0.515245556
0.393270843,3.53553391,-0.349451232
0.394480907,4.04508497,-0.175052337
0.395690971,4.45503262,0.00365678543
0.396901035,4.75528258,0.182276159
0.3981111,4.9384417,0.356407833
0.399321164,5.0,0.521762185
0.400531228,4.9384417,0.674269474
0.401741292,4.75528258,0.810173512
0.402951356,4.45503262,0.926128916
0.40416142,4.04508497,1.01927986
0.405371484,3.53553391,1.08733325
0.406581548,2.93892626,1.12861354
0.407791613,2.2699525,1.14210473
0.409001677,1.54508497,1.12747108
0.410211741,0.782172325,1.08507536
0.411421805,9.51878279e-13,1.01596153
0.412631869,-0.782172325,0.921831417
0.413841933,-1.54508497,0.805002751
0.415051997,-2.2699525,0.668353659
0.416262062,-2.93892626,0.515247168
0.417472126,-3.53553391,0.349453779
0.41868219,-4.04508497,0.175055139
0.419892254,-4.45503262,-0.00365397032
0.421102318,-4.75528258,-0.182273236
0.422312382,-4.9384417,-0.35640411
0.423522446,-5.0,-0.521759593
0.42473251,-4.9384417,-0.674268288
0.425942575,-4.75528258,-0.810172773
0.427152639,-4.45503262,-0.92612774
0.428362703,-4.04508497,-1.01927876
0.429572767,-3.53553391,-1.08733174
0.430782831,-2.93892626,-1.12861127
0.431992895,-2.2699525,-1.14210061
0.433202959,-1.54508497,-1.12746854
0.434413024,-0.782172325,-1.08507478
0.435623088,-1.04130842e-12,-1.01596302
0.436833152,0.782172325,-0.921834219
0.438043216,1.54508497,-0.805006697
0.43925328,2.2699525,-0.668355977
0.440463344,2.93892626,-0.515247654
0.441673408,3.53553391,-0.349453265
0.442883472,4.04508497,-0.175054159
0.444093537,4.45503262,0.00365564995
0.445303601,4.75528258,0.18227475
0.446513665,4.9384417,0.356407161
0.447723729,5.0,0.521761952
0.448933793,4.9384417,0.674270434
0.450143857,4.75528258,0.810176095
0.451353921,4.45503262,0.926131491
0.452563986,4.04508497,1.0192814
0.45377405,3.53553391,1.08733438
0.454984114,2.93892626,1.12861417
0.456194178,2.2699525,1.14210215
0.457404242,1.54508497,1.12746855
0.458614306,0.782172325,1.08507541
0.45982437,1.16626571e-12,1.0159635
0.461034434,-0.782172325,0.921834798
0.462244499,-1.54508497,0.805005447
0.463454563,-2.2699525,0.668355421
0.464664627,-2.93892626,0.515247901
0.465874691,-3.53553391,0.349452782
0.467084755,-4.04508497,0.175053048
0.468294819,-4.45503262,-0.00365607064
0.469504883,-4.75528258,-0.18227599
0.470714948,-4.9384417,-0.356408143
0.471925012,-5.0,-0.521762871
0.473135076,-4.9384417,-0.674269923
0.47434514,-4.75528258,-0.810174268
0.475555204,-4.45503262,-0.926129477
0.476765268,-4.04508497,-1.0192811
0.477975332,-3.53553391,-1.087334
0.479185396,-2.93892626,-1.12861361
0.480395461,-2.2699525,-1.14210225
0.481605525,-1.54508497,-1.12746863
0.482815589,-0.782172325,-1.08507298
0.484025653,-1.25569585e-12,-1.01596091
