TIME,Addition_2.s_out.signal[1],SensorVoltage_1.v
0.0,0.0,0.0
0.0314014572,0.782172325,0.227648563
0.0628029144,1.54508497,0.593644237
0.0942043716,2.2699525,0.962768439
0.125605829,2.93892626,1.31037352
0.157007286,3.53553391,1.62597404
0.188408743,4.04508497,1.90157757
0.2198102,4.45503262,2.13036138
0.251211658,4.75528258,2.30668895
0.282613115,4.9384417,2.42621711
0.314014572,5.0,2.48600546
0.345416029,4.9384417,2.48457846
0.376817487,4.75528258,2.42197613
0.408218944,4.45503262,2.29973493
0.439620401,4.04508497,2.12086331
0.471021858,3.53553391,1.88977064
0.502423315,2.93892626,1.61214693
0.533824773,2.2699525,1.29482674
0.56522623,1.54508497,0.945624349
0.596627687,0.782172325,0.573137483
0.628029144,-8.269481020000001e-15,0.186536516
0.659430601,-0.782172325,-0.204656992
0.690832059,-1.54508497,-0.590811063
0.722233516,-2.2699525,-0.962417472
0.753634973,-2.93892626,-1.31032554
0.78503643,-3.53553391,-1.62596976
0.816437887,-4.04508497,-1.90157602
0.847839345,-4.45503262,-2.13035917
0.879240802,-4.75528258,-2.30668682
0.910642259,-4.9384417,-2.42621583
0.942043716,-5.0,-2.48600334
0.973445173,-4.9384417,-2.4845772
1.00484663,-4.75528258,-2.4219725
1.03624809,-4.45503262,-2.29973086
1.06764955,-4.04508497,-2.12086201
1.099051,-3.53553391,-1.88977066
1.13045246,-2.93892626,-1.61214675
1.16185392,-2.2699525,-1.2948265
1.19325537,-1.54508497,-0.945622896
1.22465683,-0.782172325,-0.57313649
1.25605829,2.09798541e-14,-0.186536489
1.28745975,0.782172325,0.204656878
1.3188612,1.54508497,0.590811352
1.35026266,2.2699525,0.962417444
1.38166412,2.93892626,1.31032527
1.41306557,3.53553391,1.62596895
1.44446703,4.04508497,1.9015757
1.47586849,4.45503262,2.13035953
1.50726995,4.75528258,2.30668684
1.5386714,4.9384417,2.42621583
1.57007286,5.0,2.48600335
1.60147432,4.9384417,2.48458012
1.63287577,4.75528258,2.42197356
1.66427723,4.45503262,2.2997297
1.69567869,4.04508497,2.12086299
1.72708015,3.53553391,1.88977177
1.7584816,2.93892626,1.61214583
1.78988306,2.2699525,1.29482782
1.82128452,1.54508497,0.945623625
1.85268598,0.782172325,0.573136362
1.88408743,-3.36902273e-14,0.186536514
1.91548889,-0.782172325,-0.204656933
1.94689035,-1.54508497,-0.590811155
1.9782918,-2.2699525,-0.962416872
2.00969326,-2.93892626,-1.31032501
2.04109472,-3.53553391,-1.6259686
2.07249618,-4.04508497,-1.90157542
2.10389763,-4.45503262,-2.13035955
2.13529909,-4.75528258,-2.30668683
2.16670055,-4.9384417,-2.42621591
2.198102,-5.0,-2.48600339
2.22950346,-4.9384417,-2.48457684
2.26090492,-4.75528258,-2.42197238
2.29230638,-4.45503262,-2.29973082
2.32370783,-4.04508497,-2.12086206
2.35510929,-3.53553391,-1.88977183
2.38651075,-2.93892626,-1.61214819
2.41791221,-2.2699525,-1.29482763
2.44931366,-1.54508497,-0.945625174
2.48071512,-0.782172325,-0.573137177
2.51211658,-4.68581337e-14,-0.186536629
2.54351803,0.782172325,0.204657105
2.57491949,1.54508497,0.590811109
2.60632095,2.2699525,0.962417588
2.63772241,2.93892626,1.31032555
2.66912386,3.53553391,1.62596887
2.70052532,4.04508497,1.9015769
2.73192678,4.45503262,2.13035935
2.76332823,4.75528258,2.30668913
2.79472969,4.9384417,2.42621942
2.82613115,5.0,2.48600204
2.85753261,4.9384417,2.48457921
2.88893406,4.75528258,2.42197364
2.92033552,4.45503262,2.2997342
2.95173698,4.04508497,2.12086467
2.98313843,3.53553391,1.8897724
3.01453989,2.93892626,1.61214807
3.04594135,2.2699525,1.294828
3.07734281,1.54508497,0.945624562
3.10874426,0.782172325,0.573136291
3.14014572,1.45170063e-13,0.186536602
3.17154718,-0.782172325,-0.20465698
3.20294864,-1.54508497,-0.590811249
3.23435009,-2.2699525,-0.962417029
3.26575155,-2.93892626,-1.31032589
3.29715301,-3.53553391,-1.62596995
3.32855446,-4.04508497,-1.9015765
3.35995592,-4.45503262,-2.13036141
3.39135738,-4.75528258,-2.3066849
3.42275884,-4.9384417,-2.42621668
3.45416029,-5.0,-2.48600364
3.48556175,-4.9384417,-2.48457573
3.51696321,-4.75528258,-2.42197213
3.54836466,-4.45503262,-2.29973218
3.57976612,-4.04508497,-2.1208627
3.61116758,-3.53553391,-1.88977034
3.64256904,-2.93892626,-1.61214816
3.67397049,-2.2699525,-1.29482784
3.70537195,-1.54508497,-0.945624702
3.73677341,-0.782172325,-0.573136978
3.76817487,-2.34600208e-13,-0.186536272
3.79957632,0.782172325,0.204657082
3.83097778,1.54508497,0.590811438
3.86237924,2.2699525,0.96241775
3.89378069,2.93892626,1.31032618
3.92518215,3.53553391,1.62597005
3.95658361,4.04508497,1.901576
3.98798507,4.45503262,2.13035953
4.01938652,4.75528258,2.30668681
4.05078798,4.9384417,2.42621601
4.08218944,5.0,2.48600338
4.11359089,4.9384417,2.48457737
4.14499235,4.75528258,2.42197261
4.17639381,4.45503262,2.29973071
4.20779527,4.04508497,2.12086212
4.23919672,3.53553391,1.88977038
4.27059818,2.93892626,1.61214688
4.30199964,2.2699525,1.29482667
4.33340109,1.54508497,0.945624115
4.36480255,0.782172325,0.573137515
4.39620401,3.24030353e-13,0.186536553
4.42760547,-0.782172325,-0.204656746
4.45900692,-1.54508497,-0.590811314
4.49040838,-2.2699525,-0.962417306
4.52180984,-2.93892626,-1.31032565
4.5532113,-3.53553391,-1.62597016
4.58461275,-4.04508497,-1.90157699
4.61601421,-4.45503262,-2.13036021
4.64741567,-4.75528258,-2.3066869
4.67881712,-4.9384417,-2.42621597
4.71021858,-5.0,-2.4860035
4.74162004,-4.9384417,-2.48457741
4.7730215,-4.75528258,-2.4219725
4.80442295,-4.45503262,-2.29973072
4.83582441,-4.04508497,-2.12086211
4.86722587,-3.53553391,-1.88977039
4.89862732,-2.93892626,-1.61214606
4.93002878,-2.2699525,-1.29482659
4.96143024,-1.54508497,-0.945623472
4.9928317,-0.782172325,-0.573135787
5.02423315,-4.31224067e-13,-0.186536124
5.05563461,0.782172325,0.204657055
5.08703607,1.54508497,0.590811447
5.11843753,2.2699525,0.962417537
5.14983898,2.93892626,1.31032596
5.18124044,3.53553391,1.62596906
5.2126419,4.04508497,1.90157584
5.24404335,4.45503262,2.13036007
5.27544481,4.75528258,2.30668794
5.30684627,4.9384417,2.42621618
5.33824773,5.0,2.48600341
5.36964918,4.9384417,2.4845772
5.40105064,4.75528258,2.42197246
5.4324521,4.45503262,2.29973058
5.46385355,4.04508497,2.12086191
5.49525501,3.53553391,1.88977073
5.52665647,2.93892626,1.61214693
5.55805793,2.2699525,1.29482665
5.58945938,1.54508497,0.945623441
5.62086084,0.782172325,0.573135919
5.6522623,5.20654212e-13,0.186536084
5.68366375,-0.782172325,-0.204656981
5.71506521,-1.54508497,-0.590811165
5.74646667,-2.2699525,-0.962417547
5.77786813,-2.93892626,-1.31032586
5.80926958,-3.53553391,-1.62596998
5.84067104,-4.04508497,-1.90157664
5.8720725,-4.45503262,-2.1303598
5.90347396,-4.75528258,-2.3066869
5.93487541,-4.9384417,-2.42621647
5.96627687,-5.0,-2.48600344
5.99767833,-4.9384417,-2.48457736
6.02907978,-4.75528258,-2.42197238
6.06048124,-4.45503262,-2.29973085
6.0918827,-4.04508497,-2.12086198
6.12328416,-3.53553391,-1.88977066
6.15468561,-2.93892626,-1.61214945
6.18608707,-2.2699525,-1.2948276
6.21748853,-1.54508497,-0.945625482
6.24888998,-0.782172325,-0.573137045
6.28029144,-6.27847926e-13,-0.186536772
6.3116929,0.782172325,0.204656882
6.34309436,1.54508497,0.590811144
6.37449581,2.2699525,0.96241712
6.40589727,2.93892626,1.31032598
6.43729873,3.53553391,1.62597098
6.46870019,4.04508497,1.90157648
6.50010164,4.45503262,2.13036184
6.5315031,4.75528258,2.30668759
6.56290456,4.9384417,2.42621592
6.59430601,5.0,2.48600315
6.62570747,4.9384417,2.48457715
6.65710893,4.75528258,2.4219725
6.68851039,4.45503262,2.29973065
6.71991184,4.04508497,2.12086103
6.7513133,3.53553391,1.88977063
6.78271476,2.93892626,1.61214628
6.81411621,2.2699525,1.29482579
6.84551767,1.54508497,0.945625438
6.87691913,0.782172325,0.573137293
6.90832059,7.35041639e-13,0.18653669
6.93972204,-0.782172325,-0.204657114
6.9711235,-1.54508497,-0.590810885
7.00252496,-2.2699525,-0.962417073
7.03392641,-2.93892626,-1.31032525
7.06532787,-3.53553391,-1.62596955
7.09672933,-4.04508497,-1.90157787
7.12813079,-4.45503262,-2.13036266
7.15953224,-4.75528258,-2.30668884
7.1909337,-4.9384417,-2.42621866
7.22233516,-5.0,-2.48600695
7.25373662,-4.9384417,-2.48457864
7.28513807,-4.75528258,-2.42197245
7.31653953,-4.45503262,-2.2997322
7.34794099,-4.04508497,-2.12086209
7.37934244,-3.53553391,-1.8897708
7.4107439,-2.93892626,-1.61214681
7.44214536,-2.2699525,-1.2948267
7.47354682,-1.54508497,-0.945624555
7.50494827,-0.782172325,-0.573136244
7.53634973,-8.24471784e-13,-0.186536028
7.56775119,0.782172325,0.204657173
7.59915264,1.54508497,0.590811445
7.6305541,2.2699525,0.962417856
7.66195556,2.93892626,1.31032564
7.69335702,3.53553391,1.6259689
7.72475847,4.04508497,1.9015763
7.75615993,4.45503262,2.1303608
7.78756139,4.75528258,2.30668704
7.81896285,4.9384417,2.42621665
7.8503643,5.0,2.48600374
7.88176576,4.9384417,2.48457724
7.91316722,4.75528258,2.42197251
7.94456867,4.45503262,2.29973079
7.97597013,4.04508497,2.12086177
8.00737159,3.53553391,1.88977024
8.03877305,2.93892626,1.61214847
8.0701745,2.2699525,1.29482816
8.10157596,1.54508497,0.945624151
8.13297742,0.782172325,0.57313614
8.16437887,7.71793382e-13,0.186536696
8.19578033,-0.782172325,-0.204656935
8.22718179,-1.54508497,-0.590811346
8.25858325,-2.2699525,-0.9624174
8.2899847,-2.93892626,-1.31032554
8.32138616,-3.53553391,-1.62596919
8.35278762,-4.04508497,-1.90157664
8.38418907,-4.45503262,-2.13036064
8.41559053,-4.75528258,-2.30668731
8.44699199,-4.9384417,-2.42621647
8.47839345,-5.0,-2.48600411
8.5097949,-4.9384417,-2.48457703
8.54119636,-4.75528258,-2.42197242
8.57259782,-4.45503262,-2.29973064
8.60399928,-4.04508497,-2.1208619
8.63540073,-3.53553391,-1.88977066
8.66680219,-2.93892626,-1.6121479
8.69820365,-2.2699525,-1.29482723
8.7296051,-1.54508497,-0.945623742
8.76100656,-0.782172325,-0.573135771
8.79240802,-4.34897886e-13,-0.186535089
8.82380948,0.782172325,0.204657114
8.85521093,1.54508497,0.590811031
8.88661239,2.2699525,0.962417936
8.91801385,2.93892626,1.31032634
8.9494153,3.53553391,1.62597025
8.98081676,4.04508497,1.90157667
9.01221822,4.45503262,2.13035926
9.04361968,4.75528258,2.30668685
9.07502113,4.9384417,2.42621612
9.10642259,5.0,2.48600339
9.13782405,4.9384417,2.48457733
9.16922551,4.75528258,2.42197251
9.20062696,4.45503262,2.29973065
9.23202842,4.04508497,2.120862
9.26342988,3.53553391,1.88977063
9.29483133,2.93892626,1.61214862
9.32623279,2.2699525,1.29482795
9.35763425,1.54508497,0.945625404
9.38903571,0.782172325,0.573138042
9.42043716,9.80023896e-14,0.186536764
9.45183862,-0.782172325,-0.204656932
9.48324008,-1.54508497,-0.590811516
9.51464153,-2.2699525,-0.962418052
9.54604299,-2.93892626,-1.3103259
9.57744445,-3.53553391,-1.62596967
9.60884591,-4.04508497,-1.90157592
9.64024736,-4.45503262,-2.13036005
9.67164882,-4.75528258,-2.30668695
9.70305028,-4.9384417,-2.42621584
9.73445173,-5.0,-2.48600346
9.76585319,-4.9384417,-2.48457743
9.79725465,-4.75528258,-2.42197248
9.82865611,-4.45503262,-2.29973068
9.86005756,-4.04508497,-2.12086165
9.89145902,-3.53553391,-1.88976998
9.92286048,-2.93892626,-1.61214681
9.95426194,-2.2699525,-1.29482663
9.98566339,-1.54508497,-0.945623228
10.0170648,-0.782172325,-0.573136126
10.0484663,2.74420243e-13,-0.186535538
10.0798678,0.782172325,0.204657766
10.1112692,1.54508497,0.590810952
10.1426707,2.2699525,0.962417777
10.1740721,2.93892626,1.31032587
10.2054736,3.53553391,1.62597077
10.2368751,4.04508497,1.90157862
10.2682765,4.45503262,2.13036136
10.299678,4.75528258,2.30668902
10.3310794,4.9384417,2.42621691
10.3624809,5.0,2.48600548
10.3938823,4.9384417,2.48457819
10.4252838,4.75528258,2.4219784
10.4566853,4.45503262,2.2997331
10.4880867,4.04508497,2.12086364
10.5194882,3.53553391,1.88977099
10.5508896,2.93892626,1.61214702
10.5822911,2.2699525,1.29482792
10.6136925,1.54508497,0.945624974
10.645094,0.782172325,0.573136863
10.6764955,-6.1131574e-13,0.186536502
10.7078969,-0.782172325,-0.204656765
10.7392984,-1.54508497,-0.590811677
10.7706998,-2.2699525,-0.962418953
10.8021013,-2.93892626,-1.31032438
10.8335027,-3.53553391,-1.62596968
10.8649042,-4.04508497,-1.90157589
10.8963057,-4.45503262,-2.13035917
10.9277071,-4.75528258,-2.30668697
10.9591086,-4.9384417,-2.42621595
10.99051,-5.0,-2.48600357
11.0219115,-4.9384417,-2.48457739
11.0533129,-4.75528258,-2.42197253
11.0847144,-4.45503262,-2.29973061
11.1161159,-4.04508497,-2.1208618
11.1475173,-3.53553391,-1.88977074
11.1789188,-2.93892626,-1.6121463
11.2103202,-2.2699525,-1.29482545
11.2417217,-1.54508497,-0.94562341
11.2731231,-0.782172325,-0.573135833
11.3045246,9.48211236e-13,-0.186535809
11.3359261,0.782172325,0.204657329
11.3673275,1.54508497,0.590811075
11.398729,2.2699525,0.962417933
11.4301304,2.93892626,1.31032675
11.4615319,3.53553391,1.62596947
11.4929333,4.04508497,1.90157833
11.5243348,4.45503262,2.13036281
11.5557363,4.75528258,2.30668842
11.5871377,4.9384417,2.4262161
11.6185392,5.0,2.48600343
11.6499406,4.9384417,2.48457717
11.6813421,4.75528258,2.42197266
11.7127435,4.45503262,2.29973068
11.744145,4.04508497,2.12086197
11.7755465,3.53553391,1.88977074
11.8069479,2.93892626,1.61214688
11.8383494,2.2699525,1.29482682
11.8697508,1.54508497,0.945623704
11.9011523,0.782172325,0.573136101
11.9325537,-1.28510673e-12,0.186535203
11.9639552,-0.782172325,-0.204657146
11.9953567,-1.54508497,-0.590811451
12.0267581,-2.2699525,-0.962417066
12.0581596,-2.93892626,-1.31032506
12.089561,-3.53553391,-1.62596892
12.1209625,-4.04508497,-1.90157609
12.1523639,-4.45503262,-2.13035969
12.1837654,-4.75528258,-2.3066868
12.2151669,-4.9384417,-2.42621607
12.2465683,-5.0,-2.48600341
12.2779698,-4.9384417,-2.48457722
12.3093712,-4.75528258,-2.42197234
12.3407727,-4.45503262,-2.29973075
12.3721741,-4.04508497,-2.12086331
12.4035756,-3.53553391,-1.88977243
12.4349771,-2.93892626,-1.61214843
12.4663785,-2.2699525,-1.294827
12.49778,-1.54508497,-0.94562459
12.5291814,-0.782172325,-0.573136775
12.5605829,-1.22460635e-14,-0.186536086
