TIME,Addition_2.s_out.signal[1],SensorVoltage_1.v
0.0,0.0,0.0
0.00159963357,0.782172325,0.0201721334
0.00319926714,1.54508497,0.0774480848
0.00479890071,2.2699525,0.166614132
0.00639853428,2.93892626,0.282056037
0.00799816784,3.53553391,0.417858374
0.00959780141,4.04508497,0.567915301
0.011197435,4.45503262,0.726049183
0.0127970686,4.75528258,0.886134388
0.0143967021,4.9384417,1.04222376
0.0159963357,5.0,1.18867113
0.0175959693,4.9384417,1.32024981
0.0191956028,4.75528258,1.43226253
0.0207952364,4.45503262,1.52064308
0.02239487,4.04508497,1.58203708
0.0239945035,3.53553391,1.61387681
0.0255941371,2.93892626,1.61442602
0.0271937707,2.2699525,1.58281669
0.0287934042,1.54508497,1.51905865
0.0303930378,0.782172325,1.42403197
0.0319926714,-6.04903497e-15,1.29945582
0.0335923049,-0.782172325,1.14783997
0.0351919385,-1.54508497,0.972416104
0.0367915721,-2.2699525,0.777054384
0.0383912057,-2.93892626,0.566159078
0.0399908392,-3.53553391,0.344559192
0.0415904728,-4.04508497,0.117381295
0.0431901064,-4.45503262,-0.11007216
0.0447897399,-4.75528258,-0.332465885
0.0463893735,-4.9384417,-0.544562092
0.0479890071,-5.0,-0.741349969
0.0495886406,-4.9384417,-0.918176273
0.0511882742,-4.75528258,-1.07086001
0.0527879078,-4.45503262,-1.1957968
0.0543875413,-4.04508497,-1.29005025
0.0559871749,-3.53553391,-1.35142523
0.0575868085,-2.93892626,-1.37852169
0.059186442,-2.2699525,-1.37077424
0.0607860756,-1.54508497,-1.32846489
0.0623857092,-0.782172325,-1.25271738
0.0639853428,2.09798541e-14,-1.14547018
0.0655849763,0.782172325,-1.00943151
0.0671846099,1.54508497,-0.848008853
0.0687842435,2.2699525,-0.66523263
0.070383877,2.93892626,-0.465647641
0.0719835106,3.53553391,-0.25421398
0.0735831442,4.04508497,-0.0361764647
0.0751827777,4.45503262,0.183063
0.0767824113,4.75528258,0.398073237
0.0783820449,4.9384417,0.603532143
0.0799816784,5.0,0.794354974
0.081581312,4.9384417,0.965820026
0.0831809456,4.75528258,1.11368561
0.0847805792,4.45503262,1.23429069
0.0863802127,4.04508497,1.32465015
0.0879798463,3.53553391,1.38252431
0.0895794799,2.93892626,1.40647483
0.0911791134,2.2699525,1.39590001
0.092778747,1.54508497,1.35104914
0.0943783806,0.782172325,1.27301708
0.0959780141,-3.36902273e-14,1.16371647
0.0975776477,-0.782172325,1.02583217
0.0991772813,-1.54508497,0.862752063
0.100776915,-2.2699525,0.678483715
0.102376548,-2.93892626,0.477560582
0.103976182,-3.53553391,0.264921398
0.105575816,-4.04508497,0.0457993041
0.107175449,-4.45503262,-0.174413171
0.108775083,-4.75528258,-0.390298455
0.110374716,-4.9384417,-0.596544015
0.11197435,-5.0,-0.788072563
0.113573983,-4.9384417,-0.960172987
0.115173617,-4.75528258,-1.10860842
0.116773251,-4.45503262,-1.22972715
0.118372884,-4.04508497,-1.32054819
0.119972518,-3.53553391,-1.37883798
0.121572151,-2.93892626,-1.4031613
0.123171785,-2.2699525,-1.39292302
0.124771418,-1.54508497,-1.34837424
0.126371052,-0.782172325,-1.27061254
0.127970686,5.08414925e-14,-1.16156025
0.129570319,0.782172325,-1.02389521
0.131169953,1.54508497,-0.861013515
0.132769586,2.2699525,-0.676920724
0.13436922,2.93892626,-0.476153765
0.135968853,3.53553391,-0.263656227
0.137568487,4.04508497,-0.0446619429
0.13916812,4.45503262,0.175435768
0.140767754,4.75528258,0.391217996
0.142367388,4.9384417,0.597369674
0.143967021,5.0,0.788815553
0.145566655,4.9384417,0.96084017
0.147166288,4.75528258,1.10920865
0.148765922,4.45503262,1.23026643
0.150365555,4.04508497,1.321033
0.151965189,3.53553391,1.37927293
0.153564823,2.93892626,1.40355236
0.155164456,2.2699525,1.39327301
0.15676409,1.54508497,1.34868791
0.158363723,0.782172325,1.27089859
0.159963357,-7.68745419e-14,1.16181683
0.16156299,-0.782172325,1.02412521
0.163162624,-1.54508497,0.861218825
0.164762258,-2.2699525,0.677104413
0.166361891,-2.93892626,0.476318427
0.167961525,-3.53553391,0.263804936
0.169561158,-4.04508497,0.0447961376
0.171160792,-4.45503262,-0.175315136
0.172760425,-4.75528258,-0.39110925
0.174360059,-4.9384417,-0.597272649
0.175959693,-5.0,-0.788729138
0.177559326,-4.9384417,-0.960764824
0.17915896,-4.75528258,-1.10914008
0.180758593,-4.45503262,-1.23020549
0.182358227,-4.04508497,-1.32097803
0.18395786,-3.53553391,-1.37922388
0.185557494,-2.93892626,-1.4035081
0.187157128,-2.2699525,-1.3932332
0.188756761,-1.54508497,-1.34865209
0.190356395,-0.782172325,-1.27086253
0.191956028,8.51440229e-14,-1.16178004
0.193555662,0.782172325,-1.02409059
0.195155295,1.54508497,-0.861184237
0.196754929,2.2699525,-0.677072982
0.198354563,2.93892626,-0.476289402
0.199954196,3.53553391,-0.263778679
0.20155383,4.04508497,-0.0447729135
0.203153463,4.45503262,0.175336182
0.204753097,4.75528258,0.391127654
0.20635273,4.9384417,0.59728975
0.207952364,5.0,0.788746356
0.209551998,4.9384417,0.960778143
0.211151631,4.75528258,1.10915347
0.212751265,4.45503262,1.23021829
0.214350898,4.04508497,1.32099134
0.215950532,3.53553391,1.37923868
0.217550165,2.93892626,1.40352319
0.219149799,2.2699525,1.39324697
0.220749433,1.54508497,1.34866953
0.222349066,0.782172325,1.27087991
0.2239487,-1.02295288e-13,1.1617983
0.225548333,-0.782172325,1.02410916
0.227147967,-1.54508497,0.861202481
0.2287476,-2.2699525,0.677091333
0.230347234,-2.93892626,0.47630682
0.231946867,-3.53553391,0.263794324
0.233546501,-4.04508497,0.0447864211
0.235146135,-4.45503262,-0.175324381
0.236745768,-4.75528258,-0.391117554
0.238345402,-4.9384417,-0.597279568
0.239945035,-5.0,-0.788734529
0.241544669,-4.9384417,-0.960767024
0.243144302,-4.75528258,-1.10914271
0.244743936,-4.45503262,-1.23020716
0.24634357,-4.04508497,-1.32098054
0.247943203,-3.53553391,-1.37922598
0.249542837,-2.93892626,-1.40351033
0.25114247,-2.2699525,-1.3932357
0.252742104,-1.54508497,-1.34865432
0.254341737,-0.782172325,-1.27086461
0.255941371,8.39194166e-14,-1.16178188
0.257541005,0.782172325,-1.02409385
0.259140638,1.54508497,-0.861189242
0.260740272,2.2699525,-0.677078945
0.262339905,2.93892626,-0.476297968
0.263939539,3.53553391,-0.263786524
0.265539172,4.04508497,-0.0447802274
0.267138806,4.45503262,0.175329408
0.26873844,4.75528258,0.391121973
0.270338073,4.9384417,0.597283227
0.271937707,5.0,0.788737258
0.27353734,4.9384417,0.960769873
0.275136974,4.75528258,1.10914547
0.276736607,4.45503262,1.2302095
0.278336241,4.04508497,1.32098201
0.279935875,3.53553391,1.37922809
0.281535508,2.93892626,1.403512
0.283135142,2.2699525,1.39323673
0.284734775,1.54508497,1.34865513
0.286334409,0.782172325,1.27086588
0.287934042,1.65382844e-13,1.16178213
0.289533676,-0.782172325,1.02409249
0.29113331,-1.54508497,0.861186213
0.292732943,-2.2699525,0.677074085
0.294332577,-2.93892626,0.476290686
0.29593221,-3.53553391,0.263779076
0.297531844,-4.04508497,0.044772086
0.299131477,-4.45503262,-0.17533667
0.300731111,-4.75528258,-0.391129127
0.302330745,-4.9384417,-0.597290333
0.303930378,-5.0,-0.788745342
0.305530012,-4.9384417,-0.960781505
0.307129645,-4.75528258,-1.1091569
0.308729279,-4.45503262,-1.23022112
0.310328912,-4.04508497,-1.32099511
0.311928546,-3.53553391,-1.37924437
0.31352818,-2.93892626,-1.40352886
0.315127813,-2.2699525,-1.39325543
0.316727447,-1.54508497,-1.34867864
0.31832708,-0.782172325,-1.2708884
0.319926714,-4.32448673e-13,-1.16180651
0.321526347,0.782172325,-1.0241169
0.323125981,1.54508497,-0.86120916
0.324725614,2.2699525,-0.677096772
0.326325248,2.93892626,-0.476312587
0.327924882,3.53553391,-0.263799471
0.329524515,4.04508497,-0.0447915416
0.331124149,4.45503262,0.175319173
0.332723782,4.75528258,0.391112759
0.334323416,4.9384417,0.597275663
0.335923049,5.0,0.788730591
0.337522683,4.9384417,0.960765189
0.339122317,4.75528258,1.10914341
0.34072195,4.45503262,1.23020925
0.342321584,4.04508497,1.32098433
0.343921217,3.53553391,1.37923487
0.345520851,2.93892626,1.40352308
0.347120484,2.2699525,1.39324785
0.348720118,1.54508497,1.34866724
0.350319752,0.782172325,1.27087576
0.351919385,6.99514502e-13,1.1617935
0.353519019,-0.782172325,1.0241049
0.355118652,-1.54508497,0.861198305
0.356718286,-2.2699525,0.677086752
0.358317919,-2.93892626,0.476302082
0.359917553,-3.53553391,0.263789486
0.361517187,-4.04508497,0.0447820153
0.36311682,-4.45503262,-0.175328091
0.364716454,-4.75528258,-0.391120631
0.366316087,-4.9384417,-0.597282079
0.367915721,-5.0,-0.788737407
0.369515354,-4.9384417,-0.960771026
0.371114988,-4.75528258,-1.1091474
0.372714622,-4.45503262,-1.23021306
0.374314255,-4.04508497,-1.32098669
0.375913889,-3.53553391,-1.37923319
0.377513522,-2.93892626,-1.4035179
0.379113156,-2.2699525,-1.39324392
0.380712789,-1.54508497,-1.34866498
0.382312423,-0.782172325,-1.27088044
0.383912057,-9.31053195e-13,-1.16179774
0.38551169,0.782172325,-1.02410878
0.387111324,1.54508497,-0.861201817
0.388710957,2.2699525,-0.677091036
0.390310591,2.93892626,-0.476309471
0.391910224,3.53553391,-0.26379696
0.393509858,4.04508497,-0.0447896874
0.395109492,4.45503262,0.175320967
0.396709125,4.75528258,0.391114702
0.398308759,4.9384417,0.59727836
0.399908392,5.0,0.788733121
0.401508026,4.9384417,0.960766179
0.403107659,4.75528258,1.10914214
0.404707293,4.45503262,1.23020671
0.406306926,4.04508497,1.32097947
0.40790656,3.53553391,1.37922469
0.409506194,2.93892626,1.40350928
0.411105827,2.2699525,1.39323439
0.412705461,1.54508497,1.3486542
0.414305094,0.782172325,1.27086983
0.415904728,1.19811902e-12,1.16178706
0.417504361,-0.782172325,1.02409953
0.419103995,-1.54508497,0.861196008
0.420703629,-2.2699525,0.677085476
0.422303262,-2.93892626,0.476301807
0.423902896,-3.53553391,0.263790608
0.425502529,-4.04508497,0.0447832412
0.427102163,-4.45503262,-0.175326909
0.428701796,-4.75528258,-0.391120125
0.43030143,-4.9384417,-0.597281605
0.431901064,-5.0,-0.788736197
0.433500697,-4.9384417,-0.960769768
0.435100331,-4.75528258,-1.10914713
0.436699964,-4.45503262,-1.23021248
0.438299598,-4.04508497,-1.32098604
0.439899231,-3.53553391,-1.37923154
0.441498865,-2.93892626,-1.40351542
0.443098499,-2.2699525,-1.39324163
0.444698132,-1.54508497,-1.34866244
0.446297766,-0.782172325,-1.27087191
0.447897399,-1.46518485e-12,-1.16179196
0.449497033,0.782172325,-1.02411192
0.451096666,1.54508497,-0.861205044
0.4526963,2.2699525,-0.677092615
0.454295934,2.93892626,-0.476307807
0.455895567,3.53553391,-0.26379552
0.457495201,4.04508497,-0.0447880091
0.459094834,4.45503262,0.175321996
0.460694468,4.75528258,0.391115477
0.462294101,4.9384417,0.597278397
0.463893735,5.0,0.788733731
0.465493369,4.9384417,0.960766294
0.467093002,4.75528258,1.10914216
0.468692636,4.45503262,1.23020687
0.470292269,4.04508497,1.32097947
0.471891903,3.53553391,1.37922566
0.473491536,2.93892626,1.40351163
0.47509117,2.2699525,1.39323821
0.476690804,1.54508497,1.34865874
0.478290437,0.782172325,1.27087127
0.479890071,1.69672355e-12,1.16179028
0.481489704,-0.782172325,1.024102
0.483089338,-1.54508497,0.861196677
0.484688971,-2.2699525,0.677085621
0.486288605,-2.93892626,0.476302073
0.487888239,-3.53553391,0.263789247
0.489487872,-4.04508497,0.0447819282
0.491087506,-4.45503262,-0.175327966
0.492687139,-4.75528258,-0.39112115
0.494286773,-4.9384417,-0.597282545
0.495886406,-5.0,-0.788736856
0.49748604,-4.9384417,-0.960770934
0.499085673,-4.75528258,-1.10914604
0.500685307,-4.45503262,-1.2302106
0.502284941,-4.04508497,-1.3209837
0.503884574,-3.53553391,-1.37922898
0.505484208,-2.93892626,-1.40351276
0.507083841,-2.2699525,-1.39323737
0.508683475,-1.54508497,-1.34865582
0.510283108,-0.782172325,-1.2708659
0.511882742,-1.96378937e-12,-1.16178453
0.513482376,0.782172325,-1.02409483
0.515082009,1.54508497,-0.861188297
0.516681643,2.2699525,-0.677076228
0.518281276,2.93892626,-0.476292647
0.51988091,3.53553391,-0.263781271
0.521480543,4.04508497,-0.0447741099
0.523080177,4.45503262,0.175334944
0.524679811,4.75528258,0.391126183
0.526279444,4.9384417,0.597287322
0.527879078,5.0,0.788741856
0.529478711,4.9384417,0.960774566
0.531078345,4.75528258,1.10914925
0.532677978,4.45503262,1.230213
0.534277612,4.04508497,1.32098501
0.535877246,3.53553391,1.3792299
0.537476879,2.93892626,1.40351364
0.539076513,2.2699525,1.39323818
0.540676146,1.54508497,1.34865661
0.54227578,0.782172325,1.2708666
0.543875413,2.2308552e-12,1.16178382
0.545475047,-0.782172325,1.02409397
0.547074681,-1.54508497,0.861187569
0.548674314,-2.2699525,0.677075881
0.550273948,-2.93892626,0.476292324
0.551873581,-3.53553391,0.263780558
0.553473215,-4.04508497,0.0447747776
0.555072848,-4.45503262,-0.175334074
0.556672482,-4.75528258,-0.391126348
0.558272116,-4.9384417,-0.597287429
0.559871749,-5.0,-0.788742045
0.561471383,-4.9384417,-0.960775283
0.563071016,-4.75528258,-1.1091511
0.56467065,-4.45503262,-1.23021539
0.566270283,-4.04508497,-1.32098954
0.567869917,-3.53553391,-1.37923798
0.569469551,-2.93892626,-1.40353162
0.571069184,-2.2699525,-1.39326566
0.572668818,-1.54508497,-1.34868245
0.574268451,-0.782172325,-1.27089286
0.575868085,-2.4623939e-12,-1.16181005
0.577467718,0.782172325,-1.02411806
0.579067352,1.54508497,-0.861208961
0.580666986,2.2699525,-0.677094438
0.582266619,2.93892626,-0.476308893
0.583866253,3.53553391,-0.263795025
0.585465886,4.04508497,-0.0447869717
0.58706552,4.45503262,0.175323302
0.588665153,4.75528258,0.391117062
0.590264787,4.9384417,0.597279266
0.59186442,5.0,0.788734767
0.593464054,4.9384417,0.960770286
0.595063688,4.75528258,1.10914585
0.596663321,4.45503262,1.23021033
0.598262955,4.04508497,1.32098184
0.599862588,3.53553391,1.37922745
0.601462222,2.93892626,1.40351135
0.603061855,2.2699525,1.39323695
0.604661489,1.54508497,1.34865549
0.606261123,0.782172325,1.27086522
0.607860756,2.72945972e-12,1.16178209
0.60946039,-0.782172325,1.02409457
0.611060023,-1.54508497,0.861189352
0.612659657,-2.2699525,0.677079361
0.61425929,-2.93892626,0.476296135
0.615858924,-3.53553391,0.263784186
0.617458558,-4.04508497,0.0447774252
0.619058191,-4.45503262,-0.175332105
0.620657825,-4.75528258,-0.39112424
0.622257458,-4.9384417,-0.597287059
0.623857092,-5.0,-0.788741099
0.625456725,-4.9384417,-0.96077386
0.627056359,-4.75528258,-1.10914995
0.628655993,-4.45503262,-1.23021417
0.630255626,-4.04508497,-1.32098581
0.63185526,-3.53553391,-1.37923088
0.633454893,-2.93892626,-1.40351446
0.635054527,-2.2699525,-1.39323892
0.63665416,-1.54508497,-1.34865719
0.638253794,-0.782172325,-1.27086714
0.639853428,-2.99652555e-12,-1.16178572
