TIME,Addition_2.s_out.signal[1],SensorVoltage_1.v
0.0,0.0,0.0
0.00405565415,0.782172325,0.0485070206
0.00811130831,1.54508497,0.177170132
0.0121669625,2.2699525,0.363548477
0.0162226166,2.93892626,0.588350387
0.0202782708,3.53553391,0.834814817
0.0243339249,4.04508497,1.08830089
0.0283895791,4.45503262,1.33604012
0.0324452332,4.75528258,1.56694489
0.0365008874,4.9384417,1.77152378
0.0405565415,5.0,1.94183584
0.0446121957,4.9384417,2.07147125
0.0486678498,4.75528258,2.15554696
0.052723504,4.45503262,2.19070233
0.0567791582,4.04508497,2.17508687
0.0608348123,3.53553391,2.10833401
0.0648904665,2.93892626,1.99151361
0.0689461206,2.2699525,1.82706528
0.0730017748,1.54508497,1.61870401
0.0770574289,0.782172325,1.37130561
0.0811130831,7.273641320000001e-15,1.09076727
0.0851687372,-0.782172325,0.783847194
0.0892243914,-1.54508497,0.457990363
0.0932800455,-2.2699525,0.121137163
0.0973356997,-2.93892626,-0.218486853
0.101391354,-3.53553391,-0.552569615
0.105447008,-4.04508497,-0.872924245
0.109502662,-4.45503262,-1.17168804
0.113558316,-4.75528258,-1.44152929
0.11761397,-4.9384417,-1.67582205
0.121669625,-5.0,-1.86880881
0.125725279,-4.9384417,-2.01574754
0.129780933,-4.75528258,-2.11302633
0.133836587,-4.45503262,-2.15826059
0.137892241,-4.04508497,-2.15034119
0.141947895,-3.53553391,-2.08945407
0.14600355,-2.93892626,-1.97711333
0.150059204,-2.2699525,-1.81607976
0.154114858,-1.54508497,-1.61032638
0.158170512,-0.782172325,-1.36491527
0.162226166,7.65717784e-15,-1.0858956
0.16628182,0.782172325,-0.780132968
0.170337474,1.54508497,-0.4551587
0.174393129,2.2699525,-0.118976848
0.178448783,2.93892626,0.2201356
0.182504437,3.53553391,0.55382763
0.186560091,4.04508497,0.873882247
0.190615745,4.45503262,1.17241986
0.194671399,4.75528258,1.44208835
0.198727054,4.9384417,1.67625
0.202782708,5.0,1.86913365
0.206838362,4.9384417,2.01599311
0.210894016,4.75528258,2.11321261
0.21494967,4.45503262,2.15839803
0.219005324,4.04508497,2.15043913
0.223060978,3.53553391,2.08953192
0.227116633,2.93892626,1.97716905
0.231172287,2.2699525,1.81612347
0.235227941,1.54508497,1.61036175
0.239283595,0.782172325,1.36494593
0.243339249,-5.14537957e-14,1.08591698
0.247394903,-0.782172325,0.780147725
0.251450558,-1.54508497,0.455169343
0.255506212,-2.2699525,0.118984415
0.259561866,-2.93892626,-0.220129766
0.26361752,-3.53553391,-0.553822997
0.267673174,-4.04508497,-0.873880104
0.271728828,-4.45503262,-1.17241784
0.275784482,-4.75528258,-1.44208594
0.279840137,-4.9384417,-1.67624503
0.283895791,-5.0,-1.86912987
0.287951445,-4.9384417,-2.0159902
0.292007099,-4.75528258,-2.11320987
0.296062753,-4.45503262,-2.15839523
0.300118407,-4.04508497,-2.15043361
0.304174062,-3.53553391,-2.08952141
0.308229716,-2.93892626,-1.97715819
0.31228537,-2.2699525,-1.81611084
0.316341024,-1.54508497,-1.61034474
0.320396678,-0.782172325,-1.36492643
0.324452332,-2.44921271e-15,-1.08590116
0.328507986,0.782172325,-0.780137086
0.332563641,1.54508497,-0.455162159
0.336619295,2.2699525,-0.118979938
0.340674949,2.93892626,0.2201331
0.344730603,3.53553391,0.553826237
0.348786257,4.04508497,0.873882605
0.352841911,4.45503262,1.17242064
0.356897566,4.75528258,1.44208932
0.36095322,4.9384417,1.67624868
0.365008874,5.0,1.86913183
0.369064528,4.9384417,2.01599148
0.373120182,4.75528258,2.11321072
0.377175836,4.45503262,2.15839604
0.38123149,4.04508497,2.15043424
0.385287145,3.53553391,2.0895217
0.389342799,2.93892626,1.97716
0.393398453,2.2699525,1.81611135
0.397454107,1.54508497,1.6103453
0.401509761,0.782172325,1.36492762
0.405565415,6.52340053e-14,1.08590137
0.40962107,-0.782172325,0.780135138
0.413676724,-1.54508497,0.455160683
0.417732378,-2.2699525,0.118978105
0.421788032,-2.93892626,-0.220134574
0.425843686,-3.53553391,-0.553827308
0.42989934,-4.04508497,-0.873882243
0.433954994,-4.45503262,-1.17242136
0.438010649,-4.75528258,-1.44208965
0.442066303,-4.9384417,-1.67624984
0.446121957,-5.0,-1.86913162
0.450177611,-4.9384417,-2.01599322
0.454233265,-4.75528258,-2.1132122
0.458288919,-4.45503262,-2.15839733
0.462344574,-4.04508497,-2.15043536
0.466400228,-3.53553391,-2.08952515
0.470455882,-2.93892626,-1.97716173
0.474511536,-2.2699525,-1.81611352
0.47856719,-1.54508497,-1.61034627
0.482622844,-0.782172325,-1.36492789
0.486678498,-1.28018798e-13,-1.08590029
0.490734153,0.782172325,-0.780134459
0.494789807,1.54508497,-0.455159018
0.498845461,2.2699525,-0.118976574
0.502901115,2.93892626,0.220135315
0.506956769,3.53553391,0.553827168
0.511012423,4.04508497,0.873881894
0.515068078,4.45503262,1.17241801
0.519123732,4.75528258,1.44208611
0.523179386,4.9384417,1.67624526
0.52723504,5.0,1.86912975
0.531290694,4.9384417,2.01599072
0.535346348,4.75528258,2.11321104
0.539402002,4.45503262,2.15839655
0.543457657,4.04508497,2.15043464
0.547513311,3.53553391,2.08952215
0.551568965,2.93892626,1.97715877
0.555624619,2.2699525,1.81611274
0.559680273,1.54508497,1.61034836
0.563735927,0.782172325,1.36492921
0.567791582,2.20496906e-14,1.0859014
0.571847236,-0.782172325,0.78013627
0.57590289,-1.54508497,0.455161742
0.579958544,-2.2699525,0.118978193
0.584014198,-2.93892626,-0.220134882
0.588069852,-3.53553391,-0.553827035
0.592125506,-4.04508497,-0.873881875
0.596181161,-4.45503262,-1.17242106
0.600236815,-4.75528258,-1.44209018
0.604292469,-4.9384417,-1.67624816
0.608348123,-5.0,-1.86913252
0.612403777,-4.9384417,-2.01599611
0.616459431,-4.75528258,-2.11321429
0.620515086,-4.45503262,-2.15839834
0.62457074,-4.04508497,-2.15043632
0.628626394,-3.53553391,-2.08952339
0.632682048,-2.93892626,-1.97715973
0.636737702,-2.2699525,-1.81611126
0.640793356,-1.54508497,-1.6103439
0.64484901,-0.782172325,-1.36492607
0.648904665,1.19446553e-13,-1.08589902
0.652960319,0.782172325,-0.780134608
0.657015973,1.54508497,-0.455160921
0.661071627,2.2699525,-0.1189791
0.665127281,2.93892626,0.220133722
0.669182935,3.53553391,0.553825688
0.67323859,4.04508497,0.873881428
0.677294244,4.45503262,1.17241907
0.681349898,4.75528258,1.44208751
0.685405552,4.9384417,1.67624846
0.689461206,5.0,1.8691326
0.69351686,4.9384417,2.01599233
0.697572514,4.75528258,2.11321197
0.701628169,4.45503262,2.15839799
0.705683823,4.04508497,2.15043623
0.709739477,3.53553391,2.0895235
0.713795131,2.93892626,1.97715977
0.717850785,2.2699525,1.81611196
0.721906439,1.54508497,1.61034622
0.725962094,0.782172325,1.36493205
0.730017748,-2.78706366e-13,1.08590484
0.734073402,-0.782172325,0.780139135
0.738129056,-1.54508497,0.455164985
0.74218471,-2.2699525,0.118981514
0.746240364,-2.93892626,-0.220131931
0.750296018,-3.53553391,-0.553825212
0.754351673,-4.04508497,-0.873881257
0.758407327,-4.45503262,-1.17241837
0.762462981,-4.75528258,-1.44208688
0.766518635,-4.9384417,-1.67624738
0.770574289,-5.0,-1.8691333
0.774629943,-4.9384417,-2.01599267
0.778685598,-4.75528258,-2.11321509
0.782741252,-4.45503262,-2.15840593
0.786796906,-4.04508497,-2.15044434
0.79085256,-3.53553391,-2.08953242
0.794908214,-2.93892626,-1.97716869
0.798963868,-2.2699525,-1.81611904
0.803019522,-1.54508497,-1.61035148
0.807075177,-0.782172325,-1.36493214
0.811130831,4.2020261e-13,-1.08590405
0.815186485,0.782172325,-0.780137372
0.819242139,1.54508497,-0.455160489
0.823297793,2.2699525,-0.1189781
0.827353447,2.93892626,0.220134403
0.831409102,3.53553391,0.553826406
0.835464756,4.04508497,0.873881338
0.83952041,4.45503262,1.17241824
0.843576064,4.75528258,1.44208628
0.847631718,4.9384417,1.67624542
0.851687372,5.0,1.86912974
0.855743026,4.9384417,2.01598989
0.859798681,4.75528258,2.11321054
0.863854335,4.45503262,2.1583967
0.867909989,4.04508497,2.15043496
0.871965643,3.53553391,2.0895274
0.876021297,2.93892626,1.97717202
0.880076951,2.2699525,1.816123
0.884132606,1.54508497,1.61035619
0.88818826,0.782172325,1.36493785
0.892243914,-5.79462422e-13,1.08590989
0.896299568,-0.782172325,0.780143804
0.900355222,-1.54508497,0.455168487
0.904410876,-2.2699525,0.118984054
0.90846653,-2.93892626,-0.220129901
0.912522185,-3.53553391,-0.553823787
0.916577839,-4.04508497,-0.873880375
0.920633493,-4.45503262,-1.17241885
0.924689147,-4.75528258,-1.44208757
0.928744801,-4.9384417,-1.67624611
0.932800455,-5.0,-1.86913102
0.93685611,-4.9384417,-2.01599031
0.940911764,-4.75528258,-2.11321029
0.944967418,-4.45503262,-2.15839585
0.949023072,-4.04508497,-2.15043456
0.953078726,-3.53553391,-2.0895221
0.95713438,-2.93892626,-1.97715874
0.961190034,-2.2699525,-1.81611038
0.965245689,-1.54508497,-1.61034305
0.969301343,-0.782172325,-1.36492669
0.973356997,7.03195098e-13,-1.08590144
0.977412651,0.782172325,-0.780136917
0.981468305,1.54508497,-0.455161636
0.985523959,2.2699525,-0.118979236
0.989579614,2.93892626,0.220133702
0.993635268,3.53553391,0.553826393
0.997690922,4.04508497,0.873882519
1.00174658,4.45503262,1.17242085
1.00580223,4.75528258,1.4420906
1.00985788,4.9384417,1.67625347
1.01391354,5.0,1.86913879
1.01796919,4.9384417,2.01600288
1.02202485,4.75528258,2.11322504
1.0260805,4.45503262,2.15840797
1.03013616,4.04508497,2.15044337
1.03419181,3.53553391,2.08952882
1.03824746,2.93892626,1.97716361
1.04230312,2.2699525,1.81611491
1.04635877,1.54508497,1.61034779
1.05041443,0.782172325,1.36492908
1.05447008,-8.6245491e-13,1.08590142
1.05852573,-0.782172325,0.780134855
1.06258139,-1.54508497,0.455159374
1.06663704,-2.2699525,0.118976054
1.0706927,-2.93892626,-0.220136369
1.07474835,-3.53553391,-0.553828328
1.078804,-4.04508497,-0.873883837
1.08285966,-4.45503262,-1.17242029
1.08691531,-4.75528258,-1.44208778
1.09097097,-4.9384417,-1.6762462
1.09502662,-5.0,-1.86913041
1.09908228,-4.9384417,-2.0159907
1.10313793,-4.75528258,-2.11321026
1.10719358,-4.45503262,-2.15839717
1.11124924,-4.04508497,-2.15043523
1.11530489,-3.53553391,-2.08952259
1.11936055,-2.93892626,-1.9771587
1.1234162,-2.2699525,-1.81611083
1.12747185,-1.54508497,-1.61034474
1.13152751,-0.782172325,-1.36492662
1.13558316,1.02171472e-12,-1.08589923
1.13963882,0.782172325,-0.780133423
1.14369447,1.54508497,-0.455158535
1.14775013,2.2699525,-0.118976054
1.15180578,2.93892626,0.220136961
1.15586143,3.53553391,0.553828546
1.15991709,4.04508497,0.873883693
1.16397274,4.45503262,1.17241941
1.1680284,4.75528258,1.44208721
1.17208405,4.9384417,1.67624667
1.1761397,5.0,1.8691308
1.18019536,4.9384417,2.0159906
1.18425101,4.75528258,2.11321007
1.18830667,4.45503262,2.15839542
1.19236232,4.04508497,2.15043393
1.19641798,3.53553391,2.08952164
1.20047363,2.93892626,1.97715808
1.20452928,2.2699525,1.81610982
1.20858494,1.54508497,1.61034348
1.21264059,0.782172325,1.3649256
1.21669625,-1.18097453e-12,1.08589828
1.2207519,-0.782172325,0.780131459
1.22480755,-1.54508497,0.455158234
1.22886321,-2.2699525,0.118976239
1.23291886,-2.93892626,-0.220136262
1.23697452,-3.53553391,-0.553827825
1.24103017,-4.04508497,-0.873883685
1.24508583,-4.45503262,-1.17242015
1.24914148,-4.75528258,-1.44208782
1.25319713,-4.9384417,-1.67624791
1.25725279,-5.0,-1.8691336
1.26130844,-4.9384417,-2.01599331
1.2653641,-4.75528258,-2.11321211
1.26941975,-4.45503262,-2.15839707
1.2734754,-4.04508497,-2.15043505
1.27753106,-3.53553391,-2.0895215
1.28158671,-2.93892626,-1.97715959
1.28564237,-2.2699525,-1.81611479
1.28969802,-1.54508497,-1.61034909
1.29375368,-0.782172325,-1.36493325
1.29780933,1.30470721e-12,-1.08590825
1.30186498,0.782172325,-0.780140921
1.30592064,1.54508497,-0.455163871
1.30997629,2.2699525,-0.118980073
1.31403195,2.93892626,0.220132984
1.3180876,3.53553391,0.553825219
1.32214325,4.04508497,0.873880389
1.32619891,4.45503262,1.17241761
1.33025456,4.75528258,1.4420858
1.33431022,4.9384417,1.67624503
1.33836587,5.0,1.86912959
1.34242152,4.9384417,2.01598886
1.34647718,4.75528258,2.11320909
1.35053283,4.45503262,2.15839431
1.35458849,4.04508497,2.15043321
1.35864414,3.53553391,2.08952096
1.3626998,2.93892626,1.97715769
1.36675545,2.2699525,1.81611011
1.3708111,1.54508497,1.61034537
1.37486676,0.782172325,1.36492822
1.37892241,-1.46396702e-12,1.08590181
1.38297807,-0.782172325,0.780135203
1.38703372,-1.54508497,0.455160704
1.39108937,-2.2699525,0.118978494
1.39514503,-2.93892626,-0.220134065
1.39920068,-3.53553391,-0.553825734
1.40325634,-4.04508497,-0.87388074
1.40731199,-4.45503262,-1.17241902
1.41136765,-4.75528258,-1.44208846
1.4154233,-4.9384417,-1.67624739
1.41947895,-5.0,-1.86913045
1.42353461,-4.9384417,-2.01599055
1.42759026,-4.75528258,-2.11320985
1.43164592,-4.45503262,-2.15839526
1.43570157,-4.04508497,-2.15043383
1.43975722,-3.53553391,-2.08952521
1.44381288,-2.93892626,-1.97716854
1.44786853,-2.2699525,-1.81612132
1.45192419,-1.54508497,-1.61035471
1.45597984,-0.782172325,-1.36493497
1.4600355,1.62322684e-12,-1.08590779
1.46409115,0.782172325,-0.780141723
1.4681468,1.54508497,-0.45516388
1.47220246,2.2699525,-0.118980036
1.47625811,2.93892626,0.220133832
1.48031377,3.53553391,0.553826705
1.48436942,4.04508497,0.873881676
1.48842507,4.45503262,1.17241852
1.49248073,4.75528258,1.44208651
1.49653638,4.9384417,1.67624774
1.50059204,5.0,1.86913338
1.50464769,4.9384417,2.01599636
1.50870335,4.75528258,2.11321761
1.512759,4.45503262,2.15840384
1.51681465,4.04508497,2.15044163
1.52087031,3.53553391,2.08952702
1.52492596,2.93892626,1.97716612
1.52898162,2.2699525,1.81612031
1.53303727,1.54508497,1.61035443
1.53709292,0.782172325,1.36493276
1.54114858,-1.78248665e-12,1.08590482
1.54520423,-0.782172325,0.780139797
1.54925989,-1.54508497,0.455164843
1.55331554,-2.2699525,0.118981604
1.5573712,-2.93892626,-0.22013185
1.56142685,-3.53553391,-0.553824751
1.5654825,-4.04508497,-0.873881589
1.56953816,-4.45503262,-1.17241933
1.57359381,-4.75528258,-1.44208783
1.57764947,-4.9384417,-1.6762471
1.58170512,-5.0,-1.86913317
1.58576077,-4.9384417,-2.01599259
1.58981643,-4.75528258,-2.11321214
1.59387208,-4.45503262,-2.15839774
1.59792774,-4.04508497,-2.15043576
1.60198339,-3.53553391,-2.08952295
1.60603904,-2.93892626,-1.97715917
1.6100947,-2.2699525,-1.81611152
1.61415035,-1.54508497,-1.61034511
1.61820601,-0.782172325,-1.36492698
1.62226166,-1.22460635e-14,-1.08589918
