TIME,Addition_2.s_out.signal[1],SensorVoltage_1.v
0.0,0.0,0.0
0.0396241449,0.782172325,0.253945437
0.0792482898,1.54508497,0.629690732
0.118872435,2.2699525,0.999040665
0.15849658,2.93892626,1.34444504
0.198120725,3.53553391,1.65679013
0.23774487,4.04508497,1.92834434
0.277369014,4.45503262,2.1524157
0.316993159,4.75528258,2.32348791
0.356617304,4.9384417,2.43734726
0.396241449,5.0,2.49119177
0.435865594,4.9384417,2.48369415
0.475489739,4.75528258,2.41503955
0.515113884,4.45503262,2.28691923
0.554738029,4.04508497,2.10248756
0.594362174,3.53553391,1.8662851
0.633986319,2.93892626,1.58412928
0.673610464,2.2699525,1.2629665
0.713234609,1.54508497,0.910705256
0.752858753,0.782172325,0.53601949
0.792482898,-3.82858892e-15,0.148135521
0.832107043,-0.782172325,-0.243396762
0.871731188,-1.54508497,-0.628935599
0.911355333,-2.2699525,-0.998987588
0.950979478,-2.93892626,-1.344442
0.990603623,-3.53553391,-1.65679114
1.03022777,-4.04508497,-1.92834395
1.06985191,-4.45503262,-2.15241532
1.10947606,-4.75528258,-2.32348749
1.1491002,-4.9384417,-2.43734723
1.18872435,-5.0,-2.49119131
1.22834849,-4.9384417,-2.48369418
1.26797264,-4.75528258,-2.41503993
1.30759678,-4.45503262,-2.28691944
1.34722093,-4.04508497,-2.10248764
1.38684507,-3.53553391,-1.86628562
1.42646922,-2.93892626,-1.58412915
1.46609336,-2.2699525,-1.26296645
1.50571751,-1.54508497,-0.91070603
1.54534165,-0.782172325,-0.536019618
1.5849658,-2.34290668e-14,-0.148135294
1.62458994,0.782172325,0.243396764
1.66421409,1.54508497,0.628936039
1.70383823,2.2699525,0.998988688
1.74346238,2.93892626,1.34444222
1.78308652,3.53553391,1.65679244
1.82271067,4.04508497,1.92834401
1.86233481,4.45503262,2.15241705
1.90195896,4.75528258,2.32348946
1.9415831,4.9384417,2.43734812
1.98120725,5.0,2.49119141
2.02083139,4.9384417,2.4836941
2.06045554,4.75528258,2.41504102
2.10007968,4.45503262,2.28692205
2.13970383,4.04508497,2.10248922
2.17932797,3.53553391,1.86628792
2.21895212,2.93892626,1.58413015
2.25857626,2.2699525,1.26296733
2.29820041,1.54508497,0.910705441
2.33782455,0.782172325,0.536019358
2.3774487,1.96004779e-14,0.148134954
2.41707284,-0.782172325,-0.243396839
2.45669698,-1.54508497,-0.628935822
2.49632113,-2.2699525,-0.998987884
2.53594527,-2.93892626,-1.34444149
2.57556942,-3.53553391,-1.65679146
2.61519356,-4.04508497,-1.92834462
2.65481771,-4.45503262,-2.15241521
2.69444185,-4.75528258,-2.32348761
2.734066,-4.9384417,-2.43734757
2.77369014,-5.0,-2.49119158
2.81331429,-4.9384417,-2.48369407
2.85293843,-4.75528258,-2.41504004
2.89256258,-4.45503262,-2.28691939
2.93218672,-4.04508497,-2.10248777
2.97181087,-3.53553391,-1.86628506
3.01143501,-2.93892626,-1.58412878
3.05105916,-2.2699525,-1.26296809
3.0906833,-1.54508497,-0.910706618
3.13030745,-0.782172325,-0.536020446
3.16993159,3.30779241e-14,-0.148135498
3.20955574,0.782172325,0.243396707
3.24917988,1.54508497,0.628935866
3.28880403,2.2699525,0.998987455
3.32842817,2.93892626,1.34444157
3.36805232,3.53553391,1.65679096
3.40767646,4.04508497,1.92834464
3.44730061,4.45503262,2.15241575
3.48692475,4.75528258,2.3234872
3.5265489,4.9384417,2.43734717
3.56617304,5.0,2.49119136
3.60579719,4.9384417,2.48369418
3.64542133,4.75528258,2.41503991
3.68504548,4.45503262,2.28691955
3.72466962,4.04508497,2.10248782
3.76429377,3.53553391,1.8662858
3.80391791,2.93892626,1.58412944
3.84354206,2.2699525,1.26296665
3.8831662,1.54508497,0.910705355
3.92279035,0.782172325,0.536019554
3.96241449,-7.68745419e-14,0.148135207
4.00203864,-0.782172325,-0.243396785
4.04166278,-1.54508497,-0.62893549
4.08128693,-2.2699525,-0.99898799
4.12091107,-2.93892626,-1.34444176
4.16053522,-3.53553391,-1.65679099
4.20015936,-4.04508497,-1.92834487
4.23978351,-4.45503262,-2.15241623
4.27940765,-4.75528258,-2.3234874
4.3190318,-4.9384417,-2.43734706
4.35865594,-5.0,-2.49119133
4.39828009,-4.9384417,-2.48369405
4.43790423,-4.75528258,-2.41503999
4.47752838,-4.45503262,-2.28691823
4.51715252,-4.04508497,-2.10248723
4.55677667,-3.53553391,-1.86628553
4.59640081,-2.93892626,-1.58412928
4.63602496,-2.2699525,-1.26296661
4.6756491,-1.54508497,-0.910705009
4.71527325,-0.782172325,-0.536019858
4.75489739,-3.92009558e-14,-0.148135789
4.79452154,0.782172325,0.24339661
4.83414568,1.54508497,0.628935605
4.87376982,2.2699525,0.998987886
4.91339397,2.93892626,1.34444185
4.95301811,3.53553391,1.65679085
4.99264226,4.04508497,1.92834449
5.0322664,4.45503262,2.15241627
5.07189055,4.75528258,2.32348757
5.11151469,4.9384417,2.43734764
5.15113884,5.0,2.49119166
5.19076298,4.9384417,2.48369428
5.23038713,4.75528258,2.4150391
5.27001127,4.45503262,2.28691882
5.30963542,4.04508497,2.10248777
5.34925956,3.53553391,1.86628548
5.38888371,2.93892626,1.5841293
5.42850785,2.2699525,1.26296633
5.468132,1.54508497,0.91070513
5.50775614,0.782172325,0.536019583
5.54738029,1.64158238e-13,0.148134414
5.58700443,-0.782172325,-0.24339689
5.62662858,-1.54508497,-0.628935413
5.66625272,-2.2699525,-0.998988069
5.70587687,-2.93892626,-1.34444195
5.74550101,-3.53553391,-1.65679105
5.78512516,-4.04508497,-1.92834441
5.8247493,-4.45503262,-2.15241688
5.86437345,-4.75528258,-2.32348874
5.90399759,-4.9384417,-2.43734713
5.94362174,-5.0,-2.49119124
5.98324588,-4.9384417,-2.48369425
6.02287003,-4.75528258,-2.41503991
6.06249417,-4.45503262,-2.28691946
6.10211832,-4.04508497,-2.10248777
6.14174246,-3.53553391,-1.86628541
6.18136661,-2.93892626,-1.58413158
6.22099075,-2.2699525,-1.26296737
6.2606149,-1.54508497,-0.910706165
6.30023904,-0.782172325,-0.536019687
6.33986319,-2.8911552e-13,-0.148135656
6.37948733,0.782172325,0.243396723
6.41911148,1.54508497,0.628935892
6.45873562,2.2699525,0.998987412
6.49835977,2.93892626,1.34444269
6.53798391,3.53553391,1.65679151
6.57760806,4.04508497,1.9283445
6.6172322,4.45503262,2.15241587
6.65685635,4.75528258,2.32348743
6.69648049,4.9384417,2.43734718
6.73610464,5.0,2.49119137
6.77572878,4.9384417,2.48369407
6.81535293,4.75528258,2.41504
6.85497707,4.45503262,2.28691966
6.89460122,4.04508497,2.10248754
6.93422536,3.53553391,1.86628502
6.97384951,2.93892626,1.58412912
7.01347365,2.2699525,1.26296654
7.0530978,1.54508497,0.91070674
7.09272194,0.782172325,0.536020588
7.13234609,4.14072802e-13,0.14813575
7.17197023,-0.782172325,-0.243396703
7.21159438,-1.54508497,-0.628936175
7.25121852,-2.2699525,-0.998988065
7.29084266,-2.93892626,-1.34444171
7.33046681,-3.53553391,-1.65679109
7.37009095,-4.04508497,-1.92834472
7.4097151,-4.45503262,-2.15241584
7.44933924,-4.75528258,-2.32348809
7.48896339,-4.9384417,-2.43734727
7.52858753,-5.0,-2.49119142
7.56821168,-4.9384417,-2.48369391
7.60783582,-4.75528258,-2.4150403
7.64745997,-4.45503262,-2.28691952
7.68708411,-4.04508497,-2.10248818
7.72670826,-3.53553391,-1.86628548
7.7663324,-2.93892626,-1.58412929
7.80595655,-2.2699525,-1.26296647
7.84558069,-1.54508497,-0.910705287
7.88520484,-0.782172325,-0.536019617
7.92482898,-5.39030084e-13,-0.148135221
7.96445313,0.782172325,0.243396825
8.00407727,1.54508497,0.628935684
8.04370142,2.2699525,0.998988013
8.08332556,2.93892626,1.34444186
8.12294971,3.53553391,1.65679092
8.16257385,4.04508497,1.92834456
8.202198,4.45503262,2.1524159
8.24182214,4.75528258,2.32348758
8.28144629,4.9384417,2.43734698
8.32107043,5.0,2.49119104
8.36069458,4.9384417,2.48369394
8.40031872,4.75528258,2.41504014
8.43994287,4.45503262,2.28691955
8.47956701,4.04508497,2.10248775
8.51919116,3.53553391,1.86628514
8.5588153,2.93892626,1.58412847
8.59843945,2.2699525,1.26296634
8.63806359,1.54508497,0.910705311
8.67768774,0.782172325,0.536020367
8.71731188,3.44243134e-13,0.148135644
8.75693603,-0.782172325,-0.24339675
8.79656017,-1.54508497,-0.628936067
8.83618432,-2.2699525,-0.998988509
8.87580846,-2.93892626,-1.3444419
8.91543261,-3.53553391,-1.65679096
8.95505675,-4.04508497,-1.92834443
8.9946809,-4.45503262,-2.15241579
9.03430504,-4.75528258,-2.32348752
9.07392919,-4.9384417,-2.43734739
9.11355333,-5.0,-2.49119133
9.15317748,-4.9384417,-2.4836941
9.19280162,-4.75528258,-2.41504002
9.23242577,-4.45503262,-2.28691964
9.27204991,-4.04508497,-2.10248738
9.31167406,-3.53553391,-1.86628562
9.3512982,-2.93892626,-1.58412963
9.39092235,-2.2699525,-1.26296647
9.43054649,-1.54508497,-0.910705043
9.47017064,-0.782172325,-0.536019412
9.50979478,-1.13929048e-13,-0.148135467
9.54941893,0.782172325,0.243396715
9.58904307,1.54508497,0.628936006
9.62866722,2.2699525,0.998988553
9.66829136,2.93892626,1.34444251
9.7079155,3.53553391,1.65679189
9.74753965,4.04508497,1.92834452
9.78716379,4.45503262,2.15241543
9.82678794,4.75528258,2.32348741
9.86641208,4.9384417,2.43734752
9.90603623,5.0,2.49119138
9.94566037,4.9384417,2.48369409
9.98528452,4.75528258,2.41504012
10.0249087,4.45503262,2.28691968
10.0645328,4.04508497,2.10248783
10.104157,3.53553391,1.86628568
10.1437811,2.93892626,1.58412927
10.1834052,2.2699525,1.26296659
10.2230294,1.54508497,0.910705404
10.2626535,0.782172325,0.536021045
10.3022777,-1.16385037e-13,0.148135642
10.3419018,-0.782172325,-0.243396741
10.381526,-1.54508497,-0.628936084
10.4211501,-2.2699525,-0.998988281
10.4607743,-2.93892626,-1.34444291
10.5003984,-3.53553391,-1.65679252
10.5400225,-4.04508497,-1.92834501
10.5796467,-4.45503262,-2.15241644
10.6192708,-4.75528258,-2.32348926
10.658895,-4.9384417,-2.4373479
10.6985191,-5.0,-2.49119169
10.7381433,-4.9384417,-2.48369388
10.7777674,-4.75528258,-2.41504097
10.8173916,-4.45503262,-2.28692002
10.8570157,-4.04508497,-2.10248769
10.8966399,-3.53553391,-1.86628566
10.936264,-2.93892626,-1.58412869
10.9758881,-2.2699525,-1.26296567
11.0155123,-1.54508497,-0.910705112
11.0551364,-0.782172325,-0.536019473
11.0947606,3.46699123e-13,-0.148135145
11.1343847,0.782172325,0.243396729
11.1740089,1.54508497,0.628936071
11.213633,2.2699525,0.99898819
11.2532572,2.93892626,1.34444228
11.2928813,3.53553391,1.6567925
11.3325054,4.04508497,1.92834651
11.3721296,4.45503262,2.15241651
11.4117537,4.75528258,2.32348843
11.4513779,4.9384417,2.43734813
11.491002,5.0,2.49119118
11.5306262,4.9384417,2.48369453
11.5702503,4.75528258,2.4150399
11.6098745,4.45503262,2.28691945
11.6494986,4.04508497,2.10248752
11.6891228,3.53553391,1.86628554
11.7287469,2.93892626,1.58412941
11.768371,2.2699525,1.26296658
11.8079952,1.54508497,0.910705328
11.8476193,0.782172325,0.536019552
11.8872435,-5.77013209e-13,0.148135121
11.9268676,-0.782172325,-0.243396707
11.9664918,-1.54508497,-0.62893587
12.0061159,-2.2699525,-0.998988086
12.0457401,-2.93892626,-1.34444177
12.0853642,-3.53553391,-1.65679182
12.1249883,-4.04508497,-1.92834515
12.1646125,-4.45503262,-2.15241587
12.2042366,-4.75528258,-2.32348794
12.2438608,-4.9384417,-2.43734898
12.2834849,-5.0,-2.49119116
12.3231091,-4.9384417,-2.48369475
12.3627332,-4.75528258,-2.41504075
12.4023574,-4.45503262,-2.28691971
12.4419815,-4.04508497,-2.10248775
12.4816056,-3.53553391,-1.8662852
12.5212298,-2.93892626,-1.58412871
12.5608539,-2.2699525,-1.26296748
12.6004781,-1.54508497,-0.910705737
12.6401022,-0.782172325,-0.536019573
12.6797264,8.07327295e-13,-0.148135586
12.7193505,0.782172325,0.243396696
12.7589747,1.54508497,0.62893634
12.7985988,2.2699525,0.998989591
12.838223,2.93892626,1.34444396
12.8778471,3.53553391,1.65679157
12.9174712,4.04508497,1.92834643
12.9570954,4.45503262,2.15241832
12.9967195,4.75528258,2.32348999
13.0363437,4.9384417,2.43734535
13.0759678,5.0,2.49119356
13.115592,4.9384417,2.48369588
13.1552161,4.75528258,2.41504117
13.1948403,4.45503262,2.28692173
13.2344644,4.04508497,2.10248864
13.2740885,3.53553391,1.86628562
13.3137127,2.93892626,1.58412927
13.3533368,2.2699525,1.26296587
13.392961,1.54508497,0.91070483
13.4325851,0.782172325,0.536019557
13.4722093,-1.00211424e-12,0.148135405
13.5118334,-0.782172325,-0.243396857
13.5514576,-1.54508497,-0.628935606
13.5910817,-2.2699525,-0.99898784
13.6307059,-2.93892626,-1.34444178
13.67033,-3.53553391,-1.65679096
13.7099541,-4.04508497,-1.92834456
13.7495783,-4.45503262,-2.15241594
13.7892024,-4.75528258,-2.3234878
13.8288266,-4.9384417,-2.43734717
13.8684507,-5.0,-2.49119133
13.9080749,-4.9384417,-2.4836941
13.947699,-4.75528258,-2.41504005
13.9873232,-4.45503262,-2.28691973
14.0269473,-4.04508497,-2.10248734
14.0665714,-3.53553391,-1.86628699
14.1061956,-2.93892626,-1.58413126
14.1458197,-2.2699525,-1.26296731
14.1854439,-1.54508497,-0.910706295
14.225068,-0.782172325,-0.536020173
14.2646922,1.23242833e-12,-0.148135571
14.3043163,0.782172325,0.243396758
14.3439405,1.54508497,0.628936108
14.3835646,2.2699525,0.998988867
14.4231888,2.93892626,1.34444263
14.4628129,3.53553391,1.65679219
14.502437,4.04508497,1.92834625
14.5420612,4.45503262,2.15241787
14.5816853,4.75528258,2.32348614
14.6213095,4.9384417,2.43734809
14.6609336,5.0,2.49119178
14.7005578,4.9384417,2.48369414
14.7401819,4.75528258,2.4150398
14.7798061,4.45503262,2.28691938
14.8194302,4.04508497,2.10248775
14.8590543,3.53553391,1.86628561
14.8986785,2.93892626,1.58412887
14.9383026,2.2699525,1.26296568
14.9779268,1.54508497,0.91070525
15.0175509,0.782172325,0.536019523
15.0571751,-1.46274242e-12,0.148134982
15.0967992,-0.782172325,-0.243397086
15.1364234,-1.54508497,-0.628935827
15.1760475,-2.2699525,-0.998987813
15.2156716,-2.93892626,-1.34444163
15.2552958,-3.53553391,-1.6567908
15.2949199,-4.04508497,-1.92834507
15.3345441,-4.45503262,-2.15241603
15.3741682,-4.75528258,-2.32348726
15.4137924,-4.9384417,-2.4373476
15.4534165,-5.0,-2.49119108
15.4930407,-4.9384417,-2.48369407
15.5326648,-4.75528258,-2.41504013
15.572289,-4.45503262,-2.28691965
15.6119131,-4.04508497,-2.10248751
15.6515372,-3.53553391,-1.8662851
15.6911614,-2.93892626,-1.5841308
15.7307855,-2.2699525,-1.26296779
15.7704097,-1.54508497,-0.910706042
15.8100338,-0.782172325,-0.536020149
15.849658,-4.77732003e-14,-0.148135477
