TIME,Addition_2.s_out.signal[1],SensorVoltage_1.v
0.0,0.0,0.0
0.0013912797,0.782172325,0.0341999306
0.0027825594,1.54508497,0.128120152
0.0041738391,2.2699525,0.269194385
0.0055651188,2.93892626,0.445430371
0.00695639851,3.53553391,0.645414804
0.00834767821,4.04508497,0.858346183
0.00973895791,4.45503262,1.07409583
0.0111302376,4.75528258,1.28329175
0.0125215173,4.9384417,1.4774198
0.013912797,5.0,1.64889881
0.0153040767,4.9384417,1.79118469
0.0166953564,4.75528258,1.89884034
0.0180866361,4.45503262,1.96760945
0.0194779158,4.04508497,1.99446776
0.0208691955,3.53553391,1.97764684
0.0222604752,2.93892626,1.91664121
0.0236517549,2.2699525,1.81218952
0.0250430346,1.54508497,1.66622906
0.0264343143,0.782172325,1.48182665
0.027825594,-3.82858892e-15,1.26308493
0.0292168737,-0.782172325,1.01502806
0.0306081534,-1.54508497,0.743460395
0.0319994331,-2.2699525,0.454815991
0.0333907128,-2.93892626,0.155995506
0.0347819925,-3.53553391,-0.145816837
0.0361732722,-4.04508497,-0.443333233
0.0375645519,-4.45503262,-0.729346494
0.0389558316,-4.75528258,-0.996913418
0.0403471113,-4.9384417,-1.23952852
0.041738391,-5.0,-1.4512877
0.0431296707,-4.9384417,-1.62703232
0.0445209504,-4.75528258,-1.76248018
0.0459122301,-4.45503262,-1.85433808
0.0473035098,-4.04508497,-1.90037435
0.0486947895,-3.53553391,-1.89948531
0.0500860692,-2.93892626,-1.85171384
0.0514773489,-2.2699525,-1.75825514
0.0528686286,-1.54508497,-1.62142555
0.0542599083,-0.782172325,-1.44460881
0.055651188,-1.89881747e-14,-1.23216852
0.0570424677,0.782172325,-0.989346673
0.0584337474,1.54508497,-0.722126196
0.0598250271,2.2699525,-0.437093882
0.0612163068,2.93892626,-0.141274029
0.0626075865,3.53553391,0.158045849
0.0639988663,4.04508497,0.45349152
0.065390146,4.45503262,0.737784663
0.0667814257,4.75528258,1.00392417
0.0681727054,4.9384417,1.24535237
0.0695639851,5.0,1.45612474
0.0709552648,4.9384417,1.63104787
0.0723465445,4.75528258,1.7658156
0.0737378242,4.45503262,1.85710781
0.0751291039,4.04508497,1.90267586
0.0765203836,3.53553391,1.90139679
0.0779116633,2.93892626,1.85330165
0.079302943,2.2699525,1.75957404
0.0806942227,1.54508497,1.62252309
0.0820855024,0.782172325,1.44552348
0.0834767821,-1.59266589e-14,1.23292833
0.0848680618,-0.782172325,0.989977381
0.0862593415,-1.54508497,0.722649996
0.0876506212,-2.2699525,0.437527832
0.0890419009,-2.93892626,0.141634387
0.0904331806,-3.53553391,-0.157746298
0.0918244603,-4.04508497,-0.453242636
0.09321574,-4.45503262,-0.737578073
0.0946070197,-4.75528258,-1.00375159
0.0959982994,-4.9384417,-1.2452087
0.0973895791,-5.0,-1.45600476
0.0987808588,-4.9384417,-1.63094869
0.100172138,-4.75528258,-1.76573435
0.101563418,-4.45503262,-1.85704151
0.102954698,-4.04508497,-1.9026206
0.104345978,-3.53553391,-1.90135073
0.105737257,-2.93892626,-1.85326338
0.107128537,-2.2699525,-1.75954247
0.108519817,-1.54508497,-1.62249572
0.109911096,-0.782172325,-1.44549694
0.111302376,6.86050609e-14,-1.23290664
0.112693656,0.782172325,-0.989957697
0.114084935,1.54508497,-0.722632763
0.115476215,2.2699525,-0.437513884
0.116867495,2.93892626,-0.141620736
0.118258775,3.53553391,0.157757973
0.119650054,4.04508497,0.453252441
0.121041334,4.45503262,0.737585493
0.122432614,4.75528258,1.00375771
0.123823893,4.9384417,1.24521533
0.125215173,5.0,1.45601219
0.126606453,4.9384417,1.6309553
0.127997733,4.75528258,1.76573946
0.129389012,4.45503262,1.85704347
0.130780292,4.04508497,1.90262318
0.132171572,3.53553391,1.90135272
0.133562851,2.93892626,1.85326516
0.134954131,2.2699525,1.75954394
0.136345411,1.54508497,1.62249706
0.13773669,0.782172325,1.44549891
0.13912797,-1.21283463e-13,1.23290729
0.14051925,-0.782172325,0.98995785
0.14191053,-1.54508497,0.722632915
0.143301809,-2.2699525,0.437514137
0.144693089,-2.93892626,0.141622563
0.146084369,-3.53553391,-0.157756854
0.147475648,-4.04508497,-0.453251461
0.148866928,-4.45503262,-0.737585554
0.150258208,-4.75528258,-1.00375907
0.151649487,-4.9384417,-1.24521472
0.153040767,-5.0,-1.45601017
0.154432047,-4.9384417,-1.63095225
0.155823327,-4.75528258,-1.76573639
0.157214606,-4.45503262,-1.85704096
0.158605886,-4.04508497,-1.902621
0.159997166,-3.53553391,-1.90135272
0.161388445,-2.93892626,-1.85326495
0.162779725,-2.2699525,-1.75954376
0.164171005,-1.54508497,-1.62249648
0.165562284,-0.782172325,-1.44550028
0.166953564,1.73961865e-13,-1.23291154
0.168344844,0.782172325,-0.98996506
0.169736124,1.54508497,-0.722641733
0.171127403,2.2699525,-0.437522296
0.172518683,2.93892626,-0.141629178
0.173909963,3.53553391,0.157750891
0.175301242,4.04508497,0.453246511
0.176692522,4.45503262,0.737582185
0.178083802,4.75528258,1.00375539
0.179475081,4.9384417,1.24521395
0.180866361,5.0,1.45601006
0.182257641,4.9384417,1.63095453
0.183648921,4.75528258,1.7657379
0.1850402,4.45503262,1.85704332
0.18643148,4.04508497,1.90262231
0.18782276,3.53553391,1.90135224
0.189214039,2.93892626,1.85326473
0.190605319,2.2699525,1.75954362
0.191996599,1.54508497,1.62249679
0.193387878,0.782172325,1.44549878
0.194779158,-2.26640267e-13,1.23290801
0.196170438,-0.782172325,0.989959481
0.197561718,-1.54508497,0.722634258
0.198952997,-2.2699525,0.437515206
0.200344277,-2.93892626,0.141623333
0.201735557,-3.53553391,-0.157756262
0.203126836,-4.04508497,-0.453250928
0.204518116,-4.45503262,-0.737585571
0.205909396,-4.75528258,-1.00375783
0.207300675,-4.9384417,-1.24521411
0.208691955,-5.0,-1.45600954
0.210083235,-4.9384417,-1.63095243
0.211474515,-4.75528258,-1.76573643
0.212865794,-4.45503262,-1.85704341
0.214257074,-4.04508497,-1.90262197
0.215648354,-3.53553391,-1.90135203
0.217039633,-2.93892626,-1.85326441
0.218430913,-2.2699525,-1.75954311
0.219822193,-1.54508497,-1.6224964
0.221213472,-0.782172325,-1.44549844
0.222604752,2.79318669e-13,-1.23290878
0.223996032,0.782172325,-0.989962772
0.225387312,1.54508497,-0.722638702
0.226778591,2.2699525,-0.437519026
0.228169871,2.93892626,-0.141624791
0.229561151,3.53553391,0.157756958
0.23095243,4.04508497,0.453251463
0.23234371,4.45503262,0.737585815
0.23373499,4.75528258,1.00375771
0.235126269,4.9384417,1.24521419
0.236517549,5.0,1.4560091
0.237908829,4.9384417,1.63095365
0.239300109,4.75528258,1.76573881
0.240691388,4.45503262,1.85704411
0.242082668,4.04508497,1.90262264
0.243473948,3.53553391,1.90135286
0.244865227,2.93892626,1.85326513
0.246256507,2.2699525,1.75954399
0.247647787,1.54508497,1.6224967
0.249039066,0.782172325,1.44549988
0.250430346,-3.14233502e-13,1.23291005
0.251821626,-0.782172325,0.989962599
0.253212906,-1.54508497,0.722638353
0.254604185,-2.2699525,0.437519641
0.255995465,-2.93892626,0.14162731
0.257386745,-3.53553391,-0.157752257
0.258778024,-4.04508497,-0.453247648
0.260169304,-4.45503262,-0.737582639
0.261560584,-4.75528258,-1.00375471
0.262951864,-4.9384417,-1.24521187
0.264343143,-5.0,-1.45600875
0.265734423,-4.9384417,-1.63095382
0.267125703,-4.75528258,-1.76573837
0.268516982,-4.45503262,-1.85704344
0.269908262,-4.04508497,-1.90262215
0.271299542,-3.53553391,-1.90135219
0.272690821,-2.93892626,-1.85326455
0.274082101,-2.2699525,-1.75954325
0.275473381,-1.54508497,-1.62249654
0.276864661,-0.782172325,-1.44549862
0.27825594,4.71676734e-14,-1.23290752
0.27964722,0.782172325,-0.989958237
0.2810385,1.54508497,-0.722633187
0.282429779,2.2699525,-0.437514482
0.283821059,2.93892626,-0.141622703
0.285212339,3.53553391,0.157756219
0.286603618,4.04508497,0.453250709
0.287994898,4.45503262,0.737584614
0.289386178,4.75528258,1.00375674
0.290777458,4.9384417,1.24521306
0.292168737,5.0,1.45600808
0.293560017,4.9384417,1.63095127
0.294951297,4.75528258,1.76573514
0.296342576,4.45503262,1.85704132
0.297733856,4.04508497,1.9026223
0.299125136,3.53553391,1.90135808
0.300516415,2.93892626,1.85326974
0.301907695,2.2699525,1.75954761
0.303298975,1.54508497,1.62250174
0.304690255,0.782172325,1.44550716
0.306081534,2.02134587e-13,1.2329165
0.307472814,-0.782172325,0.989968159
0.308864094,-1.54508497,0.722641101
0.310255373,-2.2699525,0.437520851
0.311646653,-2.93892626,0.141628074
0.313037933,-3.53553391,-0.157751955
0.314429212,-4.04508497,-0.453247241
0.315820492,-4.45503262,-0.73758243
0.317211772,-4.75528258,-1.00375564
0.318603052,-4.9384417,-1.24521201
0.319994331,-5.0,-1.4560091
0.321385611,-4.9384417,-1.63095468
0.322776891,-4.75528258,-1.76574002
0.32416817,-4.45503262,-1.85704524
0.32555945,-4.04508497,-1.90262715
0.32695073,-3.53553391,-1.90136124
0.328342009,-2.93892626,-1.85327384
0.329733289,-2.2699525,-1.75955365
0.331124569,-1.54508497,-1.6225076
0.332515849,-0.782172325,-1.44550957
0.333907128,-4.69200416e-13,-1.23291596
0.335298408,0.782172325,-0.989966436
0.336689688,1.54508497,-0.722643386
0.338080967,2.2699525,-0.437523829
0.339472247,2.93892626,-0.141631079
0.340863527,3.53553391,0.15774924
0.342254806,4.04508497,0.453245374
0.343646086,4.45503262,0.737580896
0.345037366,4.75528258,1.00375311
0.346428646,4.9384417,1.24521048
0.347819925,5.0,1.45600705
0.349211205,4.9384417,1.63095075
0.350602485,4.75528258,1.76573655
0.351993764,4.45503262,1.85704212
0.353385044,4.04508497,1.9026208
0.354776324,3.53553391,1.90135187
0.356167603,2.93892626,1.85326513
0.357558883,2.2699525,1.75954379
0.358950163,1.54508497,1.62249693
0.360341443,0.782172325,1.44549892
0.361732722,7.36266245e-13,1.23290779
0.363124002,-0.782172325,0.989958546
0.364515282,-1.54508497,0.722633276
0.365906561,-2.2699525,0.437514329
0.367297841,-2.93892626,0.141623254
0.368689121,-3.53553391,-0.157755287
0.3700804,-4.04508497,-0.453250657
0.37147168,-4.45503262,-0.737579803
0.37286296,-4.75528258,-1.00375529
0.37425424,-4.9384417,-1.24521179
0.375645519,-5.0,-1.45600586
0.377036799,-4.9384417,-1.6309479
0.378428079,-4.75528258,-1.76573252
0.379819358,-4.45503262,-1.8570381
0.381210638,-4.04508497,-1.90261761
0.382601918,-3.53553391,-1.9013487
0.383993198,-2.93892626,-1.85326173
0.385384477,-2.2699525,-1.75954323
0.386775757,-1.54508497,-1.62249907
0.388167037,-0.782172325,-1.44550296
0.389558316,-1.00333207e-12,-1.23291299
0.390949596,0.782172325,-0.989962656
0.392340876,1.54508497,-0.722636466
0.393732155,2.2699525,-0.437516796
0.395123435,2.93892626,-0.141624121
0.396514715,3.53553391,0.157754987
0.397905995,4.04508497,0.453249921
0.399297274,4.45503262,0.737584018
0.400688554,4.75528258,1.00375626
0.402079834,4.9384417,1.24521333
0.403471113,5.0,1.45600837
0.404862393,4.9384417,1.63095166
0.406253673,4.75528258,1.76573667
0.407644952,4.45503262,1.85704215
0.409036232,4.04508497,1.90262089
0.410427512,3.53553391,1.90135107
0.411818792,2.93892626,1.85326364
0.413210071,2.2699525,1.7595428
0.414601351,1.54508497,1.62249618
0.415992631,0.782172325,1.44549807
0.41738391,1.2703979e-12,1.23290722
0.41877519,-0.782172325,0.989959442
0.42016647,-1.54508497,0.722636537
0.421557749,-2.2699525,0.437520607
0.422949029,-2.93892626,0.141628525
0.424340309,-3.53553391,-0.15775136
0.425731589,-4.04508497,-0.453245895
0.427122868,-4.45503262,-0.737580721
0.428514148,-4.75528258,-1.00375365
0.429905428,-4.9384417,-1.24521142
0.431296707,-5.0,-1.45600867
0.432687987,-4.9384417,-1.63095282
0.434079267,-4.75528258,-1.76573589
0.435470546,-4.45503262,-1.85704183
0.436861826,-4.04508497,-1.90262042
0.438253106,-3.53553391,-1.90135052
0.439644386,-2.93892626,-1.85326324
0.441035665,-2.2699525,-1.75954239
0.442426945,-1.54508497,-1.62249567
0.443818225,-0.782172325,-1.44549796
0.445209504,-1.5019366e-12,-1.23290696
0.446600784,0.782172325,-0.989957937
0.447992064,1.54508497,-0.722634225
0.449383343,2.2699525,-0.437516725
0.450774623,2.93892626,-0.141624975
0.452165903,3.53553391,0.157754265
0.453557183,4.04508497,0.453249721
0.454948462,4.45503262,0.737584276
0.456339742,4.75528258,1.00375946
0.457731022,4.9384417,1.2452155
0.459122301,5.0,1.45600992
0.460513581,4.9384417,1.63095344
0.461904861,4.75528258,1.76573717
0.46329614,4.45503262,1.85704303
0.46468742,4.04508497,1.90262166
0.4660787,3.53553391,1.90135178
0.46746998,2.93892626,1.85326412
0.468861259,2.2699525,1.75954367
0.470252539,1.54508497,1.62249712
0.471643819,0.782172325,1.4454991
0.473035098,1.76900243e-12,1.23290907
0.474426378,-0.782172325,0.9899614
0.475817658,-1.54508497,0.722638669
0.477208937,-2.2699525,0.437520749
0.478600217,-2.93892626,0.141628712
0.479991497,-3.53553391,-0.157751619
0.481382777,-4.04508497,-0.453246947
0.482774056,-4.45503262,-0.737583362
0.484165336,-4.75528258,-1.00375862
0.485556616,-4.9384417,-1.24521317
0.486947895,-5.0,-1.45600755
0.488339175,-4.9384417,-1.63095537
0.489730455,-4.75528258,-1.76574491
0.491121734,-4.45503262,-1.85704878
0.492513014,-4.04508497,-1.90262652
0.493904294,-3.53553391,-1.90135632
0.495295574,-2.93892626,-1.85326984
0.496686853,-2.2699525,-1.75954775
0.498078133,-1.54508497,-1.62250017
0.499469413,-0.782172325,-1.44550143
0.500860692,-2.00054112e-12,-1.23291145
0.502251972,0.782172325,-0.989964057
0.503643252,1.54508497,-0.72263911
0.505034532,2.2699525,-0.437520657
0.506425811,2.93892626,-0.141629469
0.507817091,3.53553391,0.157750601
0.509208371,4.04508497,0.453246357
0.51059965,4.45503262,0.737581598
0.51199093,4.75528258,1.00375433
0.51338221,4.9384417,1.24521256
0.514773489,5.0,1.45601127
0.516164769,4.9384417,1.6309541
0.517556049,4.75528258,1.7657387
0.518947329,4.45503262,1.85704399
0.520338608,4.04508497,1.90262287
0.521729888,3.53553391,1.90135444
0.523121168,2.93892626,1.85326649
0.524512447,2.2699525,1.75954514
0.525903727,1.54508497,1.62249766
0.527295007,0.782172325,1.44550093
0.528686286,1.62811848e-12,1.23291321
0.530077566,-0.782172325,0.989966405
0.531468846,-1.54508497,0.722641546
0.532860126,-2.2699525,0.437521364
0.534251405,-2.93892626,0.141628533
0.535642685,-3.53553391,-0.157751644
0.537033965,-4.04508497,-0.453247006
0.538425244,-4.45503262,-0.737584221
0.539816524,-4.75528258,-1.00375903
0.541207804,-4.9384417,-1.24521549
0.542599083,-5.0,-1.4560115
0.543990363,-4.9384417,-1.63095655
0.545381643,-4.75528258,-1.76574242
0.546772923,-4.45503262,-1.85704844
0.548164202,-4.04508497,-1.90262638
0.549555482,-3.53553391,-1.90135573
0.550946762,-2.93892626,-1.85326756
0.552338041,-2.2699525,-1.75954579
0.553729321,-1.54508497,-1.62249753
0.555120601,-0.782172325,-1.44549849
0.55651188,-1.29122299e-12,-1.23290769
