TIME,Addition_2.s_out.signal[1],SensorVoltage_1.v
0.0,0.0,0.0
0.0226743925,0.782172325,0.268384631
0.0453487851,1.54508497,0.647568705
0.0680231776,2.2699525,1.01651157
0.0906975702,2.93892626,1.36070508
0.113371963,3.53553391,1.67140659
0.136046355,4.04508497,1.94095355
0.158720748,4.45503262,2.16270803
0.18139514,4.75528258,2.33120903
0.204069533,4.9384417,2.4423083
0.226743925,5.0,2.49326964
0.249418318,4.9384417,2.48283801
0.27209271,4.75528258,2.41127102
0.294767103,4.45503262,2.28033043
0.317441496,4.04508497,2.09324074
0.340115888,3.53553391,1.85460832
0.362790281,2.93892626,1.57030939
0.385464673,2.2699525,1.24734402
0.408139066,1.54508497,0.893665956
0.430813458,0.782172325,0.517982365
0.453487851,-6.04903497e-15,0.129543397
0.476162243,-0.782172325,-0.26208496
0.498836636,-1.54508497,-0.647259898
0.521511028,-2.2699525,-1.01649713
0.544185421,-2.93892626,-1.36070471
0.566859814,-3.53553391,-1.67140769
0.589534206,-4.04508497,-1.94095569
0.612208599,-4.45503262,-2.16270786
0.634882991,-4.75528258,-2.33120887
0.657557384,-4.9384417,-2.44230808
0.680231776,-5.0,-2.49326898
0.702906169,-4.9384417,-2.48283777
0.725580561,-4.75528258,-2.41127126
0.748254954,-4.45503262,-2.28033125
0.770929346,-4.04508497,-2.09324084
0.793603739,-3.53553391,-1.85460959
0.816278131,-2.93892626,-1.57031031
0.838952524,-2.2699525,-1.24734531
0.861626917,-1.54508497,-0.893666459
0.884301309,-0.782172325,-0.517981918
0.906975702,-1.89881747e-14,-0.129543535
0.929650094,0.782172325,0.262084987
0.952324487,1.54508497,0.647260263
0.974998879,2.2699525,1.01649702
0.997673272,2.93892626,1.36070501
1.02034766,3.53553391,1.67140819
1.04302206,4.04508497,1.9409556
1.06569645,4.45503262,2.16270948
1.08837084,4.75528258,2.33121082
1.11104523,4.9384417,2.44230741
1.13371963,5.0,2.49327011
1.15639402,4.9384417,2.4828384
1.17906841,4.75528258,2.41127178
1.2017428,4.45503262,2.28033137
1.2244172,4.04508497,2.09324235
1.24709159,3.53553391,1.85460852
1.26976598,2.93892626,1.57030771
1.29244037,2.2699525,1.24734538
1.31511477,1.54508497,0.893665798
1.33778916,0.782172325,0.517981581
1.36046355,-7.04487467e-15,0.129543195
1.38313794,-0.782172325,-0.262084912
1.40581234,-1.54508497,-0.647260179
1.42848673,-2.2699525,-1.01649699
1.45116112,-2.93892626,-1.36070434
1.47383552,-3.53553391,-1.67140673
1.49650991,-4.04508497,-1.94095371
1.5191843,-4.45503262,-2.16270788
1.54185869,-4.75528258,-2.33120969
1.56453309,-4.9384417,-2.44230816
1.58720748,-5.0,-2.49327007
1.60988187,-4.9384417,-2.4828403
1.63255626,-4.75528258,-2.41127213
1.65523066,-4.45503262,-2.28033068
1.67790505,-4.04508497,-2.0932403
1.70057944,-3.53553391,-1.85460844
1.72325383,-2.93892626,-1.57030899
1.74592823,-2.2699525,-1.24734431
1.76860262,-1.54508497,-0.89366528
1.79127701,-0.782172325,-0.517981355
1.8139514,5.08414925e-14,-0.12954323
1.8366258,0.782172325,0.262084907
1.85930019,1.54508497,0.647259665
1.88197458,2.2699525,1.01649663
1.90464897,2.93892626,1.36070432
1.92732337,3.53553391,1.67140674
1.94999776,4.04508497,1.94095361
1.97267215,4.45503262,2.16270784
1.99534654,4.75528258,2.33120896
2.01802094,4.9384417,2.44230795
2.04069533,5.0,2.49326924
2.06336972,4.9384417,2.48283796
2.08604411,4.75528258,2.41127103
2.10871851,4.45503262,2.28033051
2.1313929,4.04508497,2.0932408
2.15406729,3.53553391,1.85460843
2.17674168,2.93892626,1.57030958
2.19941608,2.2699525,1.24734443
2.22209047,1.54508497,0.893665495
2.24476486,0.782172325,0.517981523
2.26743925,-8.57563261e-14,0.129543057
2.29011365,-0.782172325,-0.26208495
2.31278804,-1.54508497,-0.647259327
2.33546243,-2.2699525,-1.01649673
2.35813682,-2.93892626,-1.36070508
2.38081122,-3.53553391,-1.67140739
2.40348561,-4.04508497,-1.94095411
2.42616,-4.45503262,-2.16270785
2.44883439,-4.75528258,-2.33120905
2.47150879,-4.9384417,-2.44230836
2.49418318,-5.0,-2.4932694
2.51685757,-4.9384417,-2.48283805
2.53953196,-4.75528258,-2.41127105
2.56220636,-4.45503262,-2.28033044
2.58488075,-4.04508497,-2.09324042
2.60755514,-3.53553391,-1.85460832
2.63022953,-2.93892626,-1.57030954
2.65290393,-2.2699525,-1.24734403
2.67557832,-1.54508497,-0.893665766
2.69825271,-0.782172325,-0.517982337
2.7209271,1.38434728e-13,-0.129543481
2.7436015,0.782172325,0.262084953
2.76627589,1.54508497,0.647260241
2.78895028,2.2699525,1.01649772
2.81162468,2.93892626,1.36070471
2.83429907,3.53553391,1.67140803
2.85697346,4.04508497,1.94095506
2.87964785,4.45503262,2.16270852
2.90232225,4.75528258,2.33120928
2.92499664,4.9384417,2.44231077
2.94767103,5.0,2.49327136
2.97034542,4.9384417,2.48283942
2.99301982,4.75528258,2.41127169
3.01569421,4.45503262,2.28033074
3.0383686,4.04508497,2.09324086
3.06104299,3.53553391,1.85460836
3.08371739,2.93892626,1.57030894
3.10639178,2.2699525,1.24734429
3.12906617,1.54508497,0.893665296
3.15174056,0.782172325,0.517981338
3.17441496,-1.73349562e-13,0.129542972
3.19708935,-0.782172325,-0.262084948
3.21976374,-1.54508497,-0.647259877
3.24243813,-2.2699525,-1.01649695
3.26511253,-2.93892626,-1.36070447
3.28778692,-3.53553391,-1.6714068
3.31046131,-4.04508497,-1.94095398
3.3331357,-4.45503262,-2.16270843
3.3558101,-4.75528258,-2.33120912
3.37848449,-4.9384417,-2.44230836
3.40115888,-5.0,-2.49326961
3.42383327,-4.9384417,-2.48283807
3.44650767,-4.75528258,-2.41127101
3.46918206,-4.45503262,-2.28033049
3.49185645,-4.04508497,-2.09324061
3.51453084,-3.53553391,-1.85460847
3.53720524,-2.93892626,-1.57030953
3.55987963,-2.2699525,-1.24734431
3.58255402,-1.54508497,-0.893666669
3.60522841,-0.782172325,-0.517982298
3.62790281,2.26027964e-13,-0.129543383
3.6505772,0.782172325,0.262084959
3.67325159,1.54508497,0.647259781
3.69592598,2.2699525,1.01649678
3.71860038,2.93892626,1.36070424
3.74127477,3.53553391,1.67140684
3.76394916,4.04508497,1.94095442
3.78662355,4.45503262,2.16270793
3.80929795,4.75528258,2.33120917
3.83197234,4.9384417,2.44230837
3.85464673,5.0,2.49326933
3.87732112,4.9384417,2.48283806
3.89999552,4.75528258,2.41127104
3.92266991,4.45503262,2.2803307
3.9453443,4.04508497,2.09324074
3.96801869,3.53553391,1.85460843
3.99069309,2.93892626,1.5703094
4.01336748,2.2699525,1.24734412
4.03604187,1.54508497,0.893665379
4.05871626,0.782172325,0.517981445
4.08139066,-2.60942797e-13,0.12954365
4.10406505,-0.782172325,-0.26208503
4.12673944,-1.54508497,-0.647260281
4.14941383,-2.2699525,-1.01649699
4.17208823,-2.93892626,-1.36070417
4.19476262,-3.53553391,-1.6714068
4.21743701,-4.04508497,-1.94095444
4.24011141,-4.45503262,-2.16270786
4.2627858,-4.75528258,-2.33120961
4.28546019,-4.9384417,-2.44230817
4.30813458,-5.0,-2.49326933
4.33080898,-4.9384417,-2.48283786
4.35348337,-4.75528258,-2.41127103
4.37615776,-4.45503262,-2.28033056
4.39883215,-4.04508497,-2.09324075
4.42150655,-3.53553391,-1.85460838
4.44418094,-2.93892626,-1.57030964
4.46685533,-2.2699525,-1.24734441
4.48952972,-1.54508497,-0.893665489
4.51220412,-0.782172325,-0.51798157
4.53487851,2.95857631e-13,-0.129543176
4.5575529,0.782172325,0.262085013
4.58022729,1.54508497,0.647259903
4.60290169,2.2699525,1.01649746
4.62557608,2.93892626,1.36070508
4.64825047,3.53553391,1.67140723
4.67092486,4.04508497,1.94095367
4.69359926,4.45503262,2.16270785
4.71627365,4.75528258,2.33120923
4.73894804,4.9384417,2.44230851
4.76162243,5.0,2.49326941
4.78429683,4.9384417,2.48283705
4.80697122,4.75528258,2.4112711
4.82964561,4.45503262,2.28033037
4.85232,4.04508497,2.09324066
4.8749944,3.53553391,1.85460889
4.89766879,2.93892626,1.57030956
4.92034318,2.2699525,1.24734416
4.94301757,1.54508497,0.893665399
4.96569197,0.782172325,0.517982021
4.98836636,-3.66299601e-13,0.129543568
5.01104075,-0.782172325,-0.26208495
5.03371514,-1.54508497,-0.647259967
5.05638954,-2.2699525,-1.01649691
5.07906393,-2.93892626,-1.3607049
5.10173832,-3.53553391,-1.67140807
5.12441271,-4.04508497,-1.94095435
5.14708711,-4.45503262,-2.16270911
5.1697615,-4.75528258,-2.33121126
5.19243589,-4.9384417,-2.44230825
5.21511028,-5.0,-2.49327015
5.23778468,-4.9384417,-2.48283809
5.26045907,-4.75528258,-2.41127105
5.28313346,-4.45503262,-2.28033059
5.30580785,-4.04508497,-2.09324082
5.32848225,-3.53553391,-1.85460851
5.35115664,-2.93892626,-1.57031061
5.37383103,-2.2699525,-1.24734487
5.39650542,-1.54508497,-0.893665349
5.41917982,-0.782172325,-0.517982145
5.44185421,3.83450867e-13,-0.12954355
5.4645286,0.782172325,0.262085033
5.48720299,1.54508497,0.647260175
5.50987739,2.2699525,1.0164973
5.53255178,2.93892626,1.36070463
5.55522617,3.53553391,1.67140707
5.57790056,4.04508497,1.94095324
5.60057496,4.45503262,2.16270854
5.62324935,4.75528258,2.33120901
5.64592374,4.9384417,2.44230807
5.66859814,5.0,2.49326954
5.69127253,4.9384417,2.48283822
5.71394692,4.75528258,2.41127087
5.73662131,4.45503262,2.28033064
5.75929571,4.04508497,2.09324082
5.7819701,3.53553391,1.8546085
5.80464449,2.93892626,1.5703096
5.82731888,2.2699525,1.2473444
5.84999328,1.54508497,0.893665472
5.87266767,0.782172325,0.517981533
5.89534206,-4.36129269e-13,0.129543212
5.91801645,-0.782172325,-0.262084927
5.94069085,-1.54508497,-0.647259667
5.96336524,-2.2699525,-1.01649674
5.98603963,-2.93892626,-1.36070442
6.00871402,-3.53553391,-1.67140696
6.03138842,-4.04508497,-1.94095379
6.05406281,-4.45503262,-2.16270786
6.0767372,-4.75528258,-2.33120925
6.09941159,-4.9384417,-2.44230847
6.12208599,-5.0,-2.49326935
6.14476038,-4.9384417,-2.48283805
6.16743477,-4.75528258,-2.41127106
6.19010916,-4.45503262,-2.28033059
6.21278356,-4.04508497,-2.09324067
6.23545795,-3.53553391,-1.85460853
6.25813234,-2.93892626,-1.57030955
6.28080673,-2.2699525,-1.24734446
6.30348113,-1.54508497,-0.89366544
6.32615552,-0.782172325,-0.517981588
6.34882991,4.88807671e-13,-0.12954361
6.3715043,0.782172325,0.26208494
6.3941787,1.54508497,0.647260175
6.41685309,2.2699525,1.01649617
6.43952748,2.93892626,1.36070425
6.46220187,3.53553391,1.67140643
6.48487627,4.04508497,1.94095407
6.50755066,4.45503262,2.1627079
6.53022505,4.75528258,2.33120894
6.55289944,4.9384417,2.44230795
6.57557384,5.0,2.49326927
6.59824823,4.9384417,2.48283798
6.62092262,4.75528258,2.41127106
6.64359701,4.45503262,2.28033039
6.66627141,4.04508497,2.09324042
6.6889458,3.53553391,1.85460804
6.71162019,2.93892626,1.57030964
6.73429458,2.2699525,1.24734393
6.75696898,1.54508497,0.893665615
6.77964337,0.782172325,0.51798123
6.80231776,-5.41486073e-13,0.12954295
6.82499215,-0.782172325,-0.262084902
6.84766655,-1.54508497,-0.647260528
6.87034094,-2.2699525,-1.01649831
6.89301533,-2.93892626,-1.36070575
6.91568972,-3.53553391,-1.67140765
6.93836412,-4.04508497,-1.94095563
6.96103851,-4.45503262,-2.16271017
6.9837129,-4.75528258,-2.33121052
7.0063873,-4.9384417,-2.44230881
7.02906169,-5.0,-2.49326929
7.05173608,-4.9384417,-2.48283812
7.07441047,-4.75528258,-2.41127108
7.09708487,-4.45503262,-2.28033057
7.11975926,-4.04508497,-2.09324084
7.14243365,-3.53553391,-1.85460841
7.16510804,-2.93892626,-1.57030977
7.18778244,-2.2699525,-1.24734428
7.21045683,-1.54508497,-0.893665515
7.23313122,-0.782172325,-0.517981506
7.25580561,5.94164475e-13,-0.129543208
7.27848001,0.782172325,0.262084928
7.3011544,1.54508497,0.647259665
7.32382879,2.2699525,1.01649675
7.34650318,2.93892626,1.36070425
7.36917758,3.53553391,1.67140674
7.39185197,4.04508497,1.9409537
7.41452636,4.45503262,2.16270782
7.43720075,4.75528258,2.33120916
7.45987515,4.9384417,2.4423081
7.48254954,5.0,2.49326919
7.50522393,4.9384417,2.48283803
7.52789832,4.75528258,2.411271
7.55057272,4.45503262,2.28033057
7.57324711,4.04508497,2.09324076
7.5959215,3.53553391,1.8546084
7.61859589,2.93892626,1.57030954
7.64127029,2.2699525,1.24734359
7.66394468,1.54508497,0.893666276
7.68661907,0.782172325,0.517982302
7.70929346,-6.1131574e-13,0.129543649
7.73196786,-0.782172325,-0.262084948
7.75464225,-1.54508497,-0.647260205
7.77731664,-2.2699525,-1.01649737
7.79999103,-2.93892626,-1.36070441
7.82266543,-3.53553391,-1.6714068
7.84533982,-4.04508497,-1.94095405
7.86801421,-4.45503262,-2.16270795
7.8906886,-4.75528258,-2.33120884
7.913363,-4.9384417,-2.44230976
7.93603739,-5.0,-2.4932708
7.95871178,-4.9384417,-2.48283936
7.98138617,-4.75528258,-2.41127532
8.00406057,-4.45503262,-2.28033241
8.02673496,-4.04508497,-2.09324332
8.04940935,-3.53553391,-1.85460936
8.07208374,-2.93892626,-1.57030963
8.09475814,-2.2699525,-1.24734441
8.11743253,-1.54508497,-0.893665099
8.14010692,-0.782172325,-0.517981506
8.16278131,4.50831321e-13,-0.129543281
8.18545571,0.782172325,0.262085145
8.2081301,1.54508497,0.647259852
8.23080449,2.2699525,1.01649782
8.25347888,2.93892626,1.36070454
8.27615328,3.53553391,1.67140838
8.29882767,4.04508497,1.94095426
8.32150206,4.45503262,2.16270993
8.34417645,4.75528258,2.33121033
8.36685085,4.9384417,2.44230886
8.38952524,5.0,2.49327086
8.41219963,4.9384417,2.48283976
8.43487403,4.75528258,2.41127509
8.45754842,4.45503262,2.28033279
8.48022281,4.04508497,2.09324126
8.5028972,3.53553391,1.85460848
8.5255716,2.93892626,1.57030954
8.54824599,2.2699525,1.24734399
8.57092038,1.54508497,0.893664636
8.59359477,0.782172325,0.517981379
8.61626917,1.00451602e-13,0.1295431
8.63894356,-0.782172325,-0.262084994
8.66161795,-1.54508497,-0.647260073
8.68429234,-2.2699525,-1.01649744
8.70696674,-2.93892626,-1.36070507
8.72964113,-3.53553391,-1.67140843
8.75231552,-4.04508497,-1.94095385
8.77498991,-4.45503262,-2.16270855
8.79766431,-4.75528258,-2.3312094
8.8203387,-4.9384417,-2.44231067
8.84301309,-5.0,-2.49327203
8.86568748,-4.9384417,-2.48283913
8.88836188,-4.75528258,-2.4112731
8.91103627,-4.45503262,-2.28033174
8.93371066,-4.04508497,-2.0932424
8.95638505,-3.53553391,-1.85461066
8.97905945,-2.93892626,-1.57031162
9.00173384,-2.2699525,-1.24734516
9.02440823,-1.54508497,-0.893666529
9.04708262,-0.782172325,-0.517981921
9.06975702,-6.87261663e-13,-0.129543557
