TIME,Addition_2.s_out.signal[1],SensorVoltage_1.v
0.0,0.0,0.0
0.00110256537,0.782172325,0.0274435139
0.00220513074,1.54508497,0.104036322
0.00330769611,2.2699525,0.221080698
0.00441026148,2.93892626,0.369814132
0.00551282685,3.53553391,0.541497742
0.00661539222,4.04508497,0.727521582
0.00771795759,4.45503262,0.919521769
0.00882052296,4.75528258,1.10950449
0.00992308833,4.9384417,1.28997212
0.0110256537,5.0,1.45404687
0.0121282191,4.9384417,1.5955876
0.0132307844,4.75528258,1.70929449
0.0143333498,4.45503262,1.79080281
0.0154359152,4.04508497,1.8367522
0.0165384805,3.53553391,1.84484602
0.0176410459,2.93892626,1.81387728
0.0187436113,2.2699525,1.74373335
0.0198461767,1.54508497,1.63539477
0.020948742,0.782172325,1.49088095
0.0220513074,1.17145334e-14,1.31319057
0.0231538728,-0.782172325,1.10621607
0.0242564381,-1.54508497,0.874636283
0.0253590035,-2.2699525,0.623793985
0.0264615689,-2.93892626,0.359554466
0.0275641342,-3.53553391,0.08815529
0.0286666996,-4.04508497,-0.183950727
0.029769265,-4.45503262,-0.450264412
0.0308718304,-4.75528258,-0.704401089
0.0319743957,-4.9384417,-0.94025234
0.0330769611,-5.0,-1.15213933
0.0341795265,-4.9384417,-1.33495679
0.0352820918,-4.75528258,-1.48429547
0.0363846572,-4.45503262,-1.59656353
0.0374872226,-4.04508497,-1.6690677
0.0385897879,-3.53553391,-1.70008417
0.0396923533,-2.93892626,-1.68890255
0.0407949187,-2.2699525,-1.63584434
0.0418974841,-1.54508497,-1.54225562
0.0430000494,-0.782172325,-1.41047524
0.0441026148,-2.78699589e-14,-1.2437776
0.0452051802,0.782172325,-1.04629284
0.0463077455,1.54508497,-0.822905432
0.0474103109,2.2699525,-0.579135381
0.0485128763,2.93892626,-0.321003189
0.0496154416,3.53553391,-0.0548770617
0.050718007,4.04508497,0.212679322
0.0518205724,4.45503262,0.475065719
0.0529231378,4.75528258,0.725812288
0.0540257031,4.9384417,0.958737826
0.0551282685,5.0,1.16809762
0.0562308339,4.9384417,1.34873286
0.0573333992,4.75528258,1.49618965
0.0584359646,4.45503262,1.60683128
0.05953853,4.04508497,1.67793265
0.0606410953,3.53553391,1.70773974
0.0617436607,2.93892626,1.69551317
0.0628462261,2.2699525,1.64155163
0.0639487915,1.54508497,1.54718337
0.0650513568,0.782172325,1.4147291
0.0661539222,3.73640463e-14,1.24745172
0.0672564876,-0.782172325,1.04946763
0.0683590529,-1.54508497,0.82564715
0.0694616183,-2.2699525,0.581502351
0.0705641837,-2.93892626,0.323044582
0.071666749,-3.53553391,0.0566374854
0.0727693144,-4.04508497,-0.211160395
0.0738718798,-4.45503262,-0.473754808
0.0749744452,-4.75528258,-0.724680727
0.0760770105,-4.9384417,-0.957759186
0.0771795759,-5.0,-1.16725157
0.0782821413,-4.9384417,-1.34800114
0.0793847066,-4.75528258,-1.49555573
0.080487272,-4.45503262,-1.6062844
0.0815898374,-4.04508497,-1.67745851
0.0826924027,-3.53553391,-1.70732926
0.0837949681,-2.93892626,-1.695157
0.0848975335,-2.2699525,-1.64124334
0.0860000989,-1.54508497,-1.54691657
0.0871026642,-0.782172325,-1.41449902
0.0882052296,-5.57399179e-14,-1.24725119
0.089307795,0.782172325,-1.04929137
0.0904103603,1.54508497,-0.82549419
0.0915129257,2.2699525,-0.58137099
0.0926154911,2.93892626,-0.322930887
0.0937180564,3.53553391,-0.0565404662
0.0948206218,4.04508497,0.211243766
0.0959231872,4.45503262,0.473826887
0.0970257526,4.75528258,0.724742591
0.0981283179,4.9384417,0.957812589
0.0992308833,5.0,1.16729935
0.100333449,4.9384417,1.34804351
0.101436014,4.75528258,1.49559375
0.102538579,4.45503262,1.6063167
0.103641145,4.04508497,1.67748708
0.10474371,3.53553391,1.70735235
0.105846276,2.93892626,1.69517723
0.106948841,2.2699525,1.64126112
0.108051406,1.54508497,1.54693268
0.109153972,0.782172325,1.41451524
0.110256537,7.41157895e-14,1.24726478
0.111359102,-0.782172325,1.04930317
0.112461668,-1.54508497,0.825504261
0.113564233,-2.2699525,0.581378982
0.114666798,-2.93892626,0.322936783
0.115769364,-3.53553391,0.0565425561
0.116871929,-4.04508497,-0.211241568
0.117974495,-4.45503262,-0.473824506
0.11907706,-4.75528258,-0.724740121
0.120179625,-4.9384417,-0.957810285
0.121282191,-5.0,-1.16729622
0.122384756,-4.9384417,-1.34803912
0.123487321,-4.75528258,-1.49558934
0.124589887,-4.45503262,-1.60631348
0.125692452,-4.04508497,-1.67748519
0.126795018,-3.53553391,-1.7073523
0.127897583,-2.93892626,-1.69518018
0.129000148,-2.2699525,-1.64126476
0.130102714,-1.54508497,-1.54693632
0.131205279,-0.782172325,-1.41451768
0.132307844,-2.14373875e-14,-1.24726744
0.13341041,0.782172325,-1.04930547
0.134512975,1.54508497,-0.825509626
0.135615541,2.2699525,-0.581384604
0.136718106,2.93892626,-0.322944246
0.137820671,3.53553391,-0.0565514714
0.138923237,4.04508497,0.211233823
0.140025802,4.45503262,0.473818092
0.141128367,4.75528258,0.724735562
0.142230933,4.9384417,0.957809013
0.143333498,5.0,1.16729525
0.144436063,4.9384417,1.34803925
0.145538629,4.75528258,1.49559159
0.146641194,4.45503262,1.60631617
0.14774376,4.04508497,1.677488
0.148846325,3.53553391,1.70735369
0.14994889,2.93892626,1.69517848
0.151051456,2.2699525,1.64126219
0.152154021,1.54508497,1.54693293
0.153256586,0.782172325,1.41451588
0.154359152,-1.55585993e-13,1.2472701
0.155461717,-0.782172325,1.04931116
0.156564283,-1.54508497,0.825513618
0.157666848,-2.2699525,0.581388356
0.158769413,-2.93892626,0.322946153
0.159871979,-3.53553391,0.0565527263
0.160974544,-4.04508497,-0.211232614
0.162077109,-4.45503262,-0.47381696
0.163179675,-4.75528258,-0.72473428
0.16428224,-4.9384417,-0.957805122
0.165384805,-5.0,-1.16729222
0.166487371,-4.9384417,-1.34803529
0.167589936,-4.75528258,-1.49558651
0.168692502,-4.45503262,-1.60631023
0.169795067,-4.04508497,-1.67748162
0.170897632,-3.53553391,-1.70734764
0.172000198,-2.93892626,-1.69517307
0.173102763,-2.2699525,-1.64125738
0.174205328,-1.54508497,-1.54692866
0.175307894,-0.782172325,-1.41450938
0.176410459,3.32609374e-13,-1.24726012
0.177513025,0.782172325,-1.04929917
0.17861559,1.54508497,-0.825500776
0.179718155,2.2699525,-0.581376754
0.180820721,2.93892626,-0.322937161
0.181923286,3.53553391,-0.0565461317
0.183025851,4.04508497,0.211238947
0.184128417,4.45503262,0.473822071
0.185230982,4.75528258,0.724738508
0.186333548,4.9384417,0.95780878
0.187436113,5.0,1.16729579
0.188538678,4.9384417,1.3480421
0.189641244,4.75528258,1.49559322
0.190743809,4.45503262,1.60631831
0.191846374,4.04508497,1.67748933
0.19294894,3.53553391,1.70735498
0.194051505,2.93892626,1.69517939
0.19515407,2.2699525,1.64126305
0.196256636,1.54508497,1.54693351
0.197359201,0.782172325,1.41451347
0.198461767,-5.27396323e-13,1.2472637
0.199564332,-0.782172325,1.04930228
0.200666897,-1.54508497,0.82550361
0.201769463,-2.2699525,0.581378431
0.202872028,-2.93892626,0.322937865
0.203974593,-3.53553391,0.056545716
0.205077159,-4.04508497,-0.211238837
0.206179724,-4.45503262,-0.473821966
0.20728229,-4.75528258,-0.724737848
0.208384855,-4.9384417,-0.957808473
0.20948742,-5.0,-1.16729811
0.210589986,-4.9384417,-1.34804095
0.211692551,-4.75528258,-1.49559362
0.212795116,-4.45503262,-1.6063163
0.213897682,-4.04508497,-1.67748702
0.215000247,-3.53553391,-1.70735219
0.216102813,-2.93892626,-1.69517711
0.217205378,-2.2699525,-1.64126557
0.218307943,-1.54508497,-1.54693694
0.219410509,-0.782172325,-1.41451789
0.220513074,7.04419704e-13,-1.24726755
0.221615639,0.782172325,-1.04930555
0.222718205,1.54508497,-0.825506573
0.22382077,2.2699525,-0.581381211
0.224923335,2.93892626,-0.322940339
0.226025901,3.53553391,-0.0565478785
0.227128466,4.04508497,0.211236909
0.228231032,4.45503262,0.473820346
0.229333597,4.75528258,0.724736698
0.230436162,4.9384417,0.957808298
0.231538728,5.0,1.16729394
0.232641293,4.9384417,1.34803783
0.233743858,4.75528258,1.49558814
0.234846424,4.45503262,1.60631336
0.235948989,4.04508497,1.67748507
0.237051555,3.53553391,1.70735125
0.23815412,2.93892626,1.69517615
0.239256685,2.2699525,1.64126058
0.240359251,1.54508497,1.54693135
0.241461816,0.782172325,1.41451618
0.242564381,-8.99206653e-13,1.24726878
0.243666947,-0.782172325,1.04931159
0.244769512,-1.54508497,0.825513344
0.245872077,-2.2699525,0.581386786
0.246974643,-2.93892626,0.322945219
0.248077208,-3.53553391,0.0565516653
0.249179774,-4.04508497,-0.21123347
0.250282339,-4.45503262,-0.47381718
0.251384904,-4.75528258,-0.724734323
0.25248747,-4.9384417,-0.957805209
0.253590035,-5.0,-1.16729212
0.2546926,-4.9384417,-1.34803581
0.255795166,-4.75528258,-1.4955863
0.256897731,-4.45503262,-1.60631077
0.258000297,-4.04508497,-1.67748337
0.259102862,-3.53553391,-1.7073497
0.260205427,-2.93892626,-1.69517557
0.261307993,-2.2699525,-1.64125954
0.262410558,-1.54508497,-1.54693176
0.263513123,-0.782172325,-1.41451178
0.264615689,1.05846647e-12,-1.24726229
0.265718254,0.782172325,-1.04930101
0.26682082,1.54508497,-0.825502461
0.267923385,2.2699525,-0.581377362
0.26902595,2.93892626,-0.322936375
0.270128516,3.53553391,-0.056544326
0.271231081,4.04508497,0.211239706
0.272333646,4.45503262,0.473823127
0.273436212,4.75528258,0.724739121
0.274538777,4.9384417,0.957809904
0.275641342,5.0,1.16729597
0.276743908,4.9384417,1.3480436
0.277846473,4.75528258,1.49559339
0.278949039,4.45503262,1.60631624
0.280051604,4.04508497,1.67748709
0.281154169,3.53553391,1.70735299
0.282256735,2.93892626,1.69517768
0.2833593,2.2699525,1.64126157
0.284461865,1.54508497,1.54693225
0.285564431,0.782172325,1.41451247
0.286666996,-1.25325341e-12,1.24726284
0.287769562,-0.782172325,1.04930159
0.288872127,-1.54508497,0.825502835
0.289974692,-2.2699525,0.58137752
0.291077258,-2.93892626,0.322937099
0.292179823,-3.53553391,0.0565450193
0.293282388,-4.04508497,-0.211239303
0.294384954,-4.45503262,-0.473822532
0.295487519,-4.75528258,-0.7247385
0.296590085,-4.9384417,-0.957808952
0.29769265,-5.0,-1.16729521
0.298795215,-4.9384417,-1.34803904
0.299897781,-4.75528258,-1.49558882
0.301000346,-4.45503262,-1.60631324
0.302102911,-4.04508497,-1.67748423
0.303205477,-3.53553391,-1.70735001
0.304308042,-2.93892626,-1.69517528
0.305410607,-2.2699525,-1.64125941
0.306513173,-1.54508497,-1.54693043
0.307615738,-0.782172325,-1.4145109
0.308718304,1.41251323e-12,-1.24726145
0.309820869,0.782172325,-1.04930022
0.310923434,1.54508497,-0.825501721
0.312026,2.2699525,-0.581376587
0.313128565,2.93892626,-0.322935434
0.31423113,3.53553391,-0.0565434904
0.315333696,4.04508497,0.211240751
0.316436261,4.45503262,0.473824022
0.317538827,4.75528258,0.724739765
0.318641392,4.9384417,0.95781233
0.319743957,5.0,1.16729985
0.320846523,4.9384417,1.34804292
0.321949088,4.75528258,1.49559171
0.323051653,4.45503262,1.60631628
0.324154219,4.04508497,1.67748839
0.325256784,3.53553391,1.70735611
0.32635935,2.93892626,1.69518391
0.327461915,2.2699525,1.64126844
0.32856448,1.54508497,1.54693615
0.329667046,0.782172325,1.4145194
0.330769611,-1.60730018e-12,1.24727144
0.331872176,-0.782172325,1.04931066
0.332974742,-1.54508497,0.825513211
0.334077307,-2.2699525,0.581389085
0.335179872,-2.93892626,0.322947545
0.336282438,-3.53553391,0.0565538388
0.337385003,-4.04508497,-0.211231794
0.338487569,-4.45503262,-0.473815904
0.339590134,-4.75528258,-0.724732767
0.340692699,-4.9384417,-0.957804055
0.341795265,-5.0,-1.16729175
0.34289783,-4.9384417,-1.34803833
0.344000395,-4.75528258,-1.49558998
0.345102961,-4.45503262,-1.60631537
0.346205526,-4.04508497,-1.67748679
0.347308092,-3.53553391,-1.70735248
0.348410657,-2.93892626,-1.69517745
0.349513222,-2.2699525,-1.64126132
0.350615788,-1.54508497,-1.54693209
0.351718353,-0.782172325,-1.41451231
0.352820918,1.80208713e-12,-1.24726262
0.353923484,0.782172325,-1.04930279
0.355026049,1.54508497,-0.825505248
0.356128614,2.2699525,-0.581381239
0.35723118,2.93892626,-0.322941383
0.358333745,3.53553391,-0.0565489396
0.359436311,4.04508497,0.211235989
0.360538876,4.45503262,0.473819457
0.361641441,4.75528258,0.724735752
0.362744007,4.9384417,0.957806827
0.363846572,5.0,1.16729391
0.364949137,4.9384417,1.34803682
0.366051703,4.75528258,1.49558733
0.367154268,4.45503262,1.60631057
0.368256834,4.04508497,1.67748139
0.369359399,3.53553391,1.70734776
0.370461964,2.93892626,1.6951731
0.37156453,2.2699525,1.64125757
0.372667095,1.54508497,1.54692872
0.37376966,0.782172325,1.41450951
0.374872226,-1.96134694e-12,1.24726041
0.375974791,-0.782172325,1.0492994
0.377077357,-1.54508497,0.825501758
0.378179922,-2.2699525,0.581378268
0.379282487,-2.93892626,0.322938599
0.380385053,-3.53553391,0.0565459594
0.381487618,-4.04508497,-0.211239101
0.382590183,-4.45503262,-0.473823059
0.383692749,-4.75528258,-0.724738753
0.384795314,-4.9384417,-0.957810422
0.385897879,-5.0,-1.16729769
0.387000445,-4.9384417,-1.34804049
0.38810301,-4.75528258,-1.49559136
0.389205576,-4.45503262,-1.6063155
0.390308141,-4.04508497,-1.67748906
0.391410706,-3.53553391,-1.70735508
0.392513272,-2.93892626,-1.69518102
0.393615837,-2.2699525,-1.64126432
0.394718402,-1.54508497,-1.54693475
0.395820968,-0.782172325,-1.41451415
0.396923533,2.15613389e-12,-1.2472643
0.398026099,0.782172325,-1.04930264
0.399128664,1.54508497,-0.825503935
0.400231229,2.2699525,-0.581378945
0.401333795,2.93892626,-0.322938296
0.40243636,3.53553391,-0.0565457298
0.403538925,4.04508497,0.211238941
0.404641491,4.45503262,0.47382175
0.405744056,4.75528258,0.724738218
0.406846622,4.9384417,0.957809344
0.407949187,5.0,1.16729569
0.409051752,4.9384417,1.34803885
0.410154318,4.75528258,1.49558903
0.411256883,4.45503262,1.60631262
0.412359448,4.04508497,1.67748416
0.413462014,3.53553391,1.70734991
0.414564579,2.93892626,1.69517907
0.415667144,2.2699525,1.64126481
0.41676971,1.54508497,1.54693673
0.417872275,0.782172325,1.41451806
0.418974841,-2.3153937e-12,1.24727072
0.420077406,-0.782172325,1.04930868
0.421179971,-1.54508497,0.825508021
0.422282537,-2.2699525,0.581382062
0.423385102,-2.93892626,0.322941477
0.424487667,-3.53553391,0.0565488695
0.425590233,-4.04508497,-0.211235898
0.426692798,-4.45503262,-0.473820546
0.427795364,-4.75528258,-0.724737184
0.428897929,-4.9384417,-0.957809048
0.430000494,-5.0,-1.16729778
0.43110306,-4.9384417,-1.3480419
0.432205625,-4.75528258,-1.49559359
0.43330819,-4.45503262,-1.60631914
0.434410756,-4.04508497,-1.67749362
0.435513321,-3.53553391,-1.70735894
0.436615887,-2.93892626,-1.69518277
0.437718452,-2.2699525,-1.6412659
0.438821017,-1.54508497,-1.54693576
0.439923583,-0.782172325,-1.41451549
0.441026148,-1.22460635e-14,-1.24726529
