TIME,Addition_2.s_out.signal[1],SensorVoltage_1.v
0.0,0.0,0.0
0.00645774833,0.782172325,0.129121022
0.0129154967,1.54508497,0.406747037
0.019373245,2.2699525,0.738491846
0.0258309933,2.93892626,1.07915248
0.0322887416,3.53553391,1.40469111
0.03874649,4.04508497,1.70048529
0.0452042383,4.45503262,1.95645586
0.0516619866,4.75528258,2.16511775
0.0581197349,4.9384417,2.32083339
0.0645774833,5.0,2.4195584
0.0710352316,4.9384417,2.45877195
0.0774929799,4.75528258,2.43747039
0.0839507282,4.45503262,2.35616202
0.0904084766,4.04508497,2.21684214
0.0968662249,3.53553391,2.02293875
0.103323973,2.93892626,1.77922415
0.109781722,2.2699525,1.4916996
0.11623947,1.54508497,1.16744505
0.122697218,0.782172325,0.814445133
0.129154967,7.273641320000001e-15,0.441390843
0.135612715,-0.782172325,0.0574668895
0.142070463,-1.54508497,-0.32787296
0.148528211,-2.2699525,-0.70513891
0.15498596,-2.93892626,-1.06504299
0.161443708,-3.53553391,-1.39872106
0.167901456,-4.04508497,-1.69795696
0.174359205,-4.45503262,-1.95538383
0.180816953,-4.75528258,-2.16466278
0.187274701,-4.9384417,-2.32064134
0.19373245,-5.0,-2.41947175
0.200190198,-4.9384417,-2.45873353
0.206647946,-4.75528258,-2.43745488
0.213105695,-4.45503262,-2.35615529
0.219563443,-4.04508497,-2.21683905
0.226021191,-3.53553391,-2.02293649
0.23247894,-2.93892626,-1.77922518
0.238936688,-2.2699525,-1.49170147
0.245394436,-1.54508497,-1.16744562
0.251852185,-0.782172325,-0.814444196
0.258309933,1.20980699e-14,-0.441388963
0.264767681,0.782172325,-0.0574649979
0.27122543,1.54508497,0.327873754
0.277683178,2.2699525,0.705139959
0.284140926,2.93892626,1.0650423
0.290598675,3.53553391,1.39871882
0.297056423,4.04508497,1.69795707
0.303514171,4.45503262,1.95538718
0.30997192,4.75528258,2.16466422
0.316429668,4.9384417,2.32063979
0.322887416,5.0,2.41947669
0.329345165,4.9384417,2.45873666
0.335802913,4.75528258,2.43745452
0.342260661,4.45503262,2.35615543
0.34871841,4.04508497,2.21683898
0.355176158,3.53553391,2.02293693
0.361633906,2.93892626,1.77922244
0.368091655,2.2699525,1.49170054
0.374549403,1.54508497,1.16744518
0.381007151,0.782172325,0.814444099
0.3874649,-3.36902273e-14,0.441388273
0.393922648,-0.782172325,0.0574646715
0.400380396,-1.54508497,-0.327873935
0.406838144,-2.2699525,-0.705139647
0.413295893,-2.93892626,-1.06504247
0.419753641,-3.53553391,-1.39871991
0.426211389,-4.04508497,-1.69795655
0.432669138,-4.45503262,-1.95538345
0.439126886,-4.75528258,-2.16466482
0.445584634,-4.9384417,-2.32064494
0.452042383,-5.0,-2.41948201
0.458500131,-4.9384417,-2.45874552
0.464957879,-4.75528258,-2.43746089
0.471415628,-4.45503262,-2.35615868
0.477873376,-4.04508497,-2.21684064
0.484331124,-3.53553391,-2.02293706
0.490788873,-2.93892626,-1.7792235
0.497246621,-2.2699525,-1.49169861
0.503704369,-1.54508497,-1.16744237
0.510162118,-0.782172325,-0.814442803
0.516619866,4.19597083e-14,-0.441388227
0.523077614,0.782172325,-0.0574652093
0.529535363,1.54508497,0.327873671
0.535993111,2.2699525,0.705139788
0.542450859,2.93892626,1.06504246
0.548908608,3.53553391,1.39872094
0.555366356,4.04508497,1.69795907
0.561824104,4.45503262,1.95538555
0.568281853,4.75528258,2.16466334
0.574739601,4.9384417,2.32064284
0.581197349,5.0,2.41947875
0.587655098,4.9384417,2.45873831
0.594112846,4.75528258,2.43745617
0.600570594,4.45503262,2.35615604
0.607028343,4.04508497,2.21683973
0.613486091,3.53553391,2.02293621
0.619943839,2.93892626,1.77922333
0.626401588,2.2699525,1.49169861
0.632859336,1.54508497,1.16744223
0.639317084,0.782172325,0.814442831
0.645774833,7.41157895e-14,0.441387937
0.652232581,-0.782172325,0.0574640811
0.658690329,-1.54508497,-0.327874593
0.665148077,-2.2699525,-0.705139684
0.671605826,-2.93892626,-1.06504186
0.678063574,-3.53553391,-1.39871958
0.684521322,-4.04508497,-1.69795624
0.690979071,-4.45503262,-1.9553834
0.697436819,-4.75528258,-2.16466267
0.703894567,-4.9384417,-2.32064113
0.710352316,-5.0,-2.41947703
0.716810064,-4.9384417,-2.45873739
0.723267812,-4.75528258,-2.43745545
0.729725561,-4.45503262,-2.35615583
0.736183309,-4.04508497,-2.21683964
0.742641057,-3.53553391,-2.02293739
0.749098806,-2.93892626,-1.7792238
0.755556554,-2.2699525,-1.49169965
0.762014302,-1.54508497,-1.16744489
0.768472051,-0.782172325,-0.814444101
0.774929799,-1.99073071e-13,-0.441388881
0.781387547,0.782172325,-0.057465147
0.787845296,1.54508497,0.327873805
0.794303044,2.2699525,0.705139052
0.800760792,2.93892626,1.06504323
0.807218541,3.53553391,1.39872321
0.813676289,4.04508497,1.69795766
0.820134037,4.45503262,1.95538418
0.826591786,4.75528258,2.1646687
0.833049534,4.9384417,2.3206486
0.839507282,5.0,2.4194809
0.845965031,4.9384417,2.45873802
0.852422779,4.75528258,2.43745597
0.858880527,4.45503262,2.35615842
0.865338276,4.04508497,2.21684233
0.871796024,3.53553391,2.02294139
0.878253772,2.93892626,1.77922925
0.884711521,2.2699525,1.4917042
0.891169269,1.54508497,1.16745012
0.897627017,0.782172325,0.814447587
0.904084766,3.06266785e-13,0.441392045
0.910542514,-0.782172325,0.057466874
0.917000262,-1.54508497,-0.327873029
0.92345801,-2.2699525,-0.705139543
0.929915759,-2.93892626,-1.06504261
0.936373507,-3.53553391,-1.39872318
0.942831255,-4.04508497,-1.69795795
0.949289004,-4.45503262,-1.9553845
0.955746752,-4.75528258,-2.16466287
0.9622045,-4.9384417,-2.32064068
0.968662249,-5.0,-2.41947685
0.975119997,-4.9384417,-2.4587376
0.981577745,-4.75528258,-2.43745613
0.988035494,-4.45503262,-2.35615598
0.994493242,-4.04508497,-2.2168395
1.00095099,-3.53553391,-2.02293634
1.00740874,-2.93892626,-1.77922249
1.01386649,-2.2699525,-1.49169914
1.02032424,-1.54508497,-1.16744492
1.02678198,-0.782172325,-0.814443616
1.03323973,-4.13460498e-13,-0.441388248
1.03969748,0.782172325,-0.0574650103
1.04615523,1.54508497,0.327873792
1.05261298,2.2699525,0.705139135
1.05907073,2.93892626,1.06504183
1.06552847,3.53553391,1.39871948
1.07198622,4.04508497,1.69795656
1.07844397,4.45503262,1.95538341
1.08490172,4.75528258,2.16466271
1.09135947,4.9384417,2.32064089
1.09781722,5.0,2.41947709
1.10427496,4.9384417,2.45873951
1.11073271,4.75528258,2.43745656
1.11719046,4.45503262,2.35615635
1.12364821,4.04508497,2.21683982
1.13010596,3.53553391,2.02293706
1.13656371,2.93892626,1.77922193
1.14302145,2.2699525,1.49169799
1.1494792,1.54508497,1.16744422
1.15593695,0.782172325,0.814443901
1.1623947,5.20654212e-13,0.441388707
1.16885245,-0.782172325,0.0574647225
1.1753102,-1.54508497,-0.327874573
1.18176794,-2.2699525,-0.70513857
1.18822569,-2.93892626,-1.06504105
1.19468344,-3.53553391,-1.39871864
1.20114119,-4.04508497,-1.69795633
1.20759894,-4.45503262,-1.95538373
1.21405669,-4.75528258,-2.16466227
1.22051443,-4.9384417,-2.32064236
1.22697218,-5.0,-2.41947882
1.23342993,-4.9384417,-2.45873528
1.23988768,-4.75528258,-2.43745774
1.24634543,-4.45503262,-2.35616119
1.25280318,-4.04508497,-2.21684208
1.25926092,-3.53553391,-2.02293862
1.26571867,-2.93892626,-1.77922424
1.27217642,-2.2699525,-1.49169962
1.27863417,-1.54508497,-1.16744494
1.28509192,-0.782172325,-0.814444721
1.29154967,-6.45611494e-13,-0.441390137
1.29800741,0.782172325,-0.057465831
1.30446516,1.54508497,0.32787337
1.31092291,2.2699525,0.705139606
1.31738066,2.93892626,1.06504325
1.32383841,3.53553391,1.39871841
1.33029615,4.04508497,1.69795593
1.3367539,4.45503262,1.95538699
1.34321165,4.75528258,2.1646642
1.3496694,4.9384417,2.3206413
1.35612715,5.0,2.41947722
1.3625849,4.9384417,2.45873765
1.36904264,4.75528258,2.43745588
1.37550039,4.45503262,2.35615574
1.38195814,4.04508497,2.21683959
1.38841589,3.53553391,2.02293663
1.39487364,2.93892626,1.7792226
1.40133139,2.2699525,1.49169927
1.40778913,1.54508497,1.16744516
1.41424688,0.782172325,0.814443658
1.42070463,7.70568776e-13,0.441388211
1.42716238,-0.782172325,0.0574649994
1.43362013,-1.54508497,-0.327873664
1.44007788,-2.2699525,-0.705139382
1.44653562,-2.93892626,-1.06504192
1.45299337,-3.53553391,-1.39871946
1.45945112,-4.04508497,-1.69795689
1.46590887,-4.45503262,-1.95538366
1.47236662,-4.75528258,-2.16466302
1.47882437,-4.9384417,-2.32064085
1.48528211,-5.0,-2.41947722
1.49173986,-4.9384417,-2.45873834
1.49819761,-4.75528258,-2.43745598
1.50465536,-4.45503262,-2.35615575
1.51111311,-4.04508497,-2.21683918
1.51757086,-3.53553391,-2.02293628
1.5240286,-2.93892626,-1.77922314
1.53048635,-2.2699525,-1.49169937
1.5369441,-1.54508497,-1.16744477
1.54340185,-0.782172325,-0.814443376
1.5498596,-8.59998921e-13,-0.441388716
1.55631735,0.782172325,-0.0574650795
1.56277509,1.54508497,0.32787364
1.56923284,2.2699525,0.705139514
1.57569059,2.93892626,1.06504073
1.58214834,3.53553391,1.39871841
1.58860609,4.04508497,1.69795541
1.59506384,4.45503262,1.95538214
1.60152158,4.75528258,2.16466332
1.60797933,4.9384417,2.32064246
1.61443708,5.0,2.41947767
1.62089483,4.9384417,2.45873609
1.62735258,4.75528258,2.43745542
1.63381033,4.45503262,2.35615557
1.64026807,4.04508497,2.21683962
1.64672582,3.53553391,2.02293729
1.65318357,2.93892626,1.7792253
1.65964132,2.2699525,1.49170255
1.66609907,1.54508497,1.16744783
1.67255682,0.782172325,0.814445399
1.67901456,9.84956203e-13,0.441391514
1.68547231,-0.782172325,0.0574662441
1.69193006,-1.54508497,-0.327873223
1.69838781,-2.2699525,-0.705139536
1.70484556,-2.93892626,-1.06504322
1.71130331,-3.53553391,-1.3987222
1.71776105,-4.04508497,-1.69796133
1.7242188,-4.45503262,-1.95538977
1.73067655,-4.75528258,-2.16466738
1.7371343,-4.9384417,-2.32064562
1.74359205,-5.0,-2.41948137
1.7500498,-4.9384417,-2.45874325
1.75650754,-4.75528258,-2.43746044
1.76296529,-4.45503262,-2.35616175
1.76942304,-4.04508497,-2.21684557
1.77588079,-3.53553391,-2.02294552
1.78233854,-2.93892626,-1.77922896
1.78879629,-2.2699525,-1.49170538
1.79525403,-1.54508497,-1.16745342
1.80171178,-0.782172325,-0.8144488
1.80816953,-1.10991348e-12,-0.441392501
1.81462728,0.782172325,-0.0574672977
1.82108503,1.54508497,0.327872925
1.82754278,2.2699525,0.705139144
1.83400052,2.93892626,1.06504164
1.84045827,3.53553391,1.39871952
1.84691602,4.04508497,1.69795578
1.85337377,4.45503262,1.95538324
1.85983152,4.75528258,2.16466331
1.86628927,4.9384417,2.32064205
1.87274701,5.0,2.41947741
1.87920476,4.9384417,2.45873746
1.88566251,4.75528258,2.43745564
1.89212026,4.45503262,2.35615584
1.89857801,4.04508497,2.2168393
1.90503576,3.53553391,2.0229365
1.9114935,2.93892626,1.77922263
1.91795125,2.2699525,1.4917009
1.924409,1.54508497,1.16744769
1.93086675,0.782172325,0.814445077
1.9373245,1.23487077e-12,0.441388919
1.94378225,-0.782172325,0.057465272
1.95023999,-1.54508497,-0.327873733
1.95669774,-2.2699525,-0.705139665
1.96315549,-2.93892626,-1.06504259
1.96961324,-3.53553391,-1.3987216
1.97607099,-4.04508497,-1.69795769
1.98252874,-4.45503262,-1.9553864
1.98898648,-4.75528258,-2.16466483
1.99544423,-4.9384417,-2.32064155
2.00190198,-5.0,-2.41947774
2.00835973,-4.9384417,-2.45873775
2.01481748,-4.75528258,-2.43745536
2.02127523,-4.45503262,-2.35615589
2.02773297,-4.04508497,-2.21683947
2.03419072,-3.53553391,-2.0229374
2.04064847,-2.93892626,-1.77922384
2.04710622,-2.2699525,-1.49169985
2.05356397,-1.54508497,-1.16744519
2.06002172,-0.782172325,-0.814444013
2.06647946,-1.32430091e-12,-0.44138856
2.07293721,0.782172325,-0.0574646305
2.07939496,1.54508497,0.32787384
2.08585271,2.2699525,0.705139541
2.09231046,2.93892626,1.06504221
2.09876821,3.53553391,1.39871976
2.10522595,4.04508497,1.69795602
2.1116837,4.45503262,1.95538345
2.11814145,4.75528258,2.16466374
2.1245992,4.9384417,2.32064207
2.13105695,5.0,2.41947739
2.1375147,4.9384417,2.45873768
2.14397244,4.75528258,2.43745596
2.15043019,4.45503262,2.35615585
2.15688794,4.04508497,2.21683921
2.16334569,3.53553391,2.02293887
2.16980344,2.93892626,1.77922439
2.17626119,2.2699525,1.49170011
2.18271893,1.54508497,1.16744535
2.18917668,0.782172325,0.814443208
2.19563443,1.41373106e-12,0.441387485
2.20209218,-0.782172325,0.0574647567
2.20854993,-1.54508497,-0.327873831
2.21500768,-2.2699525,-0.705139551
2.22146542,-2.93892626,-1.06504327
2.22792317,-3.53553391,-1.39872076
2.23438092,-4.04508497,-1.69795661
2.24083867,-4.45503262,-1.95538366
2.24729642,-4.75528258,-2.16466261
2.25375417,-4.9384417,-2.32064064
2.26021191,-5.0,-2.4194774
2.26666966,-4.9384417,-2.45873836
2.27312741,-4.75528258,-2.43745656
2.27958516,-4.45503262,-2.35615611
2.28604291,-4.04508497,-2.21683966
2.29250066,-3.53553391,-2.02293699
2.2989584,-2.93892626,-1.77922196
2.30541615,-2.2699525,-1.49169798
2.3118739,-1.54508497,-1.16744424
2.31833165,-0.782172325,-0.814443899
2.3247894,-1.53868834e-12,-0.441390073
2.33124715,0.782172325,-0.057466244
2.33770489,1.54508497,0.327873076
2.34416264,2.2699525,0.705139336
2.35062039,2.93892626,1.065042
2.35707814,3.53553391,1.39872009
2.36353589,4.04508497,1.69795812
2.36999364,4.45503262,1.95538626
2.37645138,4.75528258,2.1646659
2.38290913,4.9384417,2.3206448
2.38936688,5.0,2.41947955
2.39582463,4.9384417,2.45873854
2.40228238,4.75528258,2.43745634
2.40874013,4.45503262,2.3561557
2.41519787,4.04508497,2.21683855
2.42165562,3.53553391,2.02293693
2.42811337,2.93892626,1.7792227
2.43457112,2.2699525,1.49169792
2.44102887,1.54508497,1.16744659
2.44748662,0.782172325,0.814446396
2.45394436,1.66364562e-12,0.441390865
2.46040211,-0.782172325,0.0574661476
2.46685986,-1.54508497,-0.327873474
2.47331761,-2.2699525,-0.705139128
2.47977536,-2.93892626,-1.06504196
2.48623311,-3.53553391,-1.39871941
2.49269085,-4.04508497,-1.69795657
2.4991486,-4.45503262,-1.95538583
2.50560635,-4.75528258,-2.16466463
2.5120641,-4.9384417,-2.32064158
2.51852185,-5.0,-2.41947723
2.5249796,-4.9384417,-2.45873775
2.53143734,-4.75528258,-2.43745596
2.53789509,-4.45503262,-2.35615598
2.54435284,-4.04508497,-2.21683935
2.55081059,-3.53553391,-2.02293652
2.55726834,-2.93892626,-1.77922277
2.56372609,-2.2699525,-1.49170017
2.57018383,-1.54508497,-1.16744528
2.57664158,-0.782172325,-0.814444097
2.58309933,-1.75307577e-12,-0.441388633
