TIME,Addition_2.s_out.signal[1],SensorVoltage_1.v
0.0,0.0,0.0
0.000660970574,0.782172325,0.0167719026
0.00132194115,1.54508497,0.0647750842
0.00198291172,2.2699525,0.14015811
0.0026438823,2.93892626,0.238620571
0.00330485287,3.53553391,0.355499686
0.00396582345,4.04508497,0.485868772
0.00462679402,4.45503262,0.624641382
0.00528776459,4.75528258,0.766681716
0.00594873517,4.9384417,0.90691997
0.00660970574,5.0,1.04046097
0.00727067632,4.9384417,1.16269921
0.00793164689,4.75528258,1.26941293
0.00859261747,4.45503262,1.35687602
0.00925358804,4.04508497,1.42191693
0.00991455861,3.53553391,1.46201129
0.0105755292,2.93892626,1.47531835
0.0112364998,2.2699525,1.46073532
0.0118974703,1.54508497,1.4179092
0.0125584409,0.782172325,1.34724292
0.0132194115,-6.04903497e-15,1.24988127
0.0138803821,-0.782172325,1.12767479
0.0145413526,-1.54508497,0.983130169
0.0152023232,-2.2699525,0.819348242
0.0158632938,-2.93892626,0.639943965
0.0165242644,-3.53553391,0.448950531
0.0171852349,-4.04508497,0.25071987
0.0178462055,-4.45503262,0.0498107892
0.0185071761,-4.75528258,-0.149124776
0.0191681467,-4.9384417,-0.341457818
0.0198291172,-5.0,-0.52270055
0.0204900878,-4.9384417,-0.688615593
0.0211510584,-4.75528258,-0.835326128
0.0218120289,-4.45503262,-0.95940742
0.0224729995,-4.04508497,-1.05797901
0.0231339701,-3.53553391,-1.12877281
0.0237949407,-2.93892626,-1.17019221
0.0244559112,-2.2699525,-1.18134883
0.0251168818,-1.54508497,-1.16209114
0.0257778524,-0.782172325,-1.1130051
0.026438823,-1.89881747e-14,-1.03540175
0.0270997935,0.782172325,-0.931285804
0.0277607641,1.54508497,-0.80330772
0.0284217347,2.2699525,-0.654695498
0.0290827053,2.93892626,-0.489180996
0.0297436758,3.53553391,-0.310905267
0.0304046464,4.04508497,-0.124319711
0.031065617,4.45503262,0.0659264168
0.0317265876,4.75528258,0.255098571
0.0323875581,4.9384417,0.438492448
0.0330485287,5.0,0.611549825
0.0337094993,4.9384417,0.76997142
0.0343704699,4.75528258,0.909818772
0.0350314404,4.45503262,1.02761644
0.035692411,4.04508497,1.1204337
0.0363533816,3.53553391,1.18595905
0.0370143522,2.93892626,1.2225534
0.0376753227,2.2699525,1.22929313
0.0383362933,1.54508497,1.20599096
0.0389972639,0.782172325,1.1532028
0.0396582345,4.62458305e-14,1.07220929
0.040319205,-0.782172325,0.964988034
0.0409801756,-1.54508497,0.834166077
0.0416411462,-2.2699525,0.682950393
0.0423021168,-2.93892626,0.515052221
0.0429630873,-3.53553391,0.334594561
0.0436240579,-4.04508497,0.146010774
0.0442850285,-4.45503262,-0.0460653078
0.044945999,-4.75528258,-0.236912788
0.0456069696,-4.9384417,-0.421840634
0.0462679402,-5.0,-0.596303655
0.0469289108,-4.9384417,-0.756009779
0.0475898813,-4.75528258,-0.897034281
0.0482508519,-4.45503262,-1.01591034
0.0489118225,-4.04508497,-1.10971629
0.0495727931,-3.53553391,-1.17614647
0.0502337636,-2.93892626,-1.21356901
0.0508947342,-2.2699525,-1.22106648
0.0515557048,-1.54508497,-1.19845827
0.0522166754,-0.782172325,-1.14630655
0.0528776459,-7.35034863e-14,-1.06589535
0.0535386165,0.782172325,-0.959208913
0.0541995871,1.54508497,-0.828873935
0.0548605577,2.2699525,-0.678104794
0.0555215282,2.93892626,-0.510615547
0.0561824988,3.53553391,-0.330531916
0.0568434694,4.04508497,-0.142290833
0.05750444,4.45503262,0.0494714399
0.0581654105,4.75528258,0.240032363
0.0588263811,4.9384417,0.424696646
0.0594873517,5.0,0.598917138
0.0601483223,4.9384417,0.758403319
0.0608092928,4.75528258,0.89922706
0.0614702634,4.45503262,1.01791827
0.062131234,4.04508497,1.11155605
0.0627922046,3.53553391,1.17783149
0.0634531751,2.93892626,1.21511233
0.0641141457,2.2699525,1.22248035
0.0647751163,1.54508497,1.19975302
0.0654360868,0.782172325,1.14748999
0.0660970574,5.63522211e-14,1.06697765
0.066758028,-0.782172325,0.960197985
0.0674189986,-1.54508497,0.829779845
0.0680799691,-2.2699525,0.67893549
0.0687409397,-2.93892626,0.511376325
0.0694019103,-3.53553391,0.331228683
0.0700628809,-4.04508497,0.142929186
0.0707238514,-4.45503262,-0.0488872161
0.071384822,-4.75528258,-0.23949765
0.0720457926,-4.9384417,-0.424206959
0.0727067632,-5.0,-0.598468781
0.0733677337,-4.9384417,-0.757992049
0.0740287043,-4.75528258,-0.898849157
0.0746896749,-4.45503262,-1.01757167
0.0753506455,-4.04508497,-1.11123664
0.076011616,-3.53553391,-1.17753774
0.0766725866,-2.93892626,-1.21484301
0.0773335572,-2.2699525,-1.22223293
0.0779945278,-1.54508497,-1.19952654
0.0786554983,-0.782172325,-1.14728237
0.0793164689,6.73804545e-14,-1.06678752
0.0799774395,0.782172325,-0.96002552
0.0806384101,1.54508497,-0.829623635
0.0812993806,2.2699525,-0.678792096
0.0819603512,2.93892626,-0.511245617
0.0826213218,3.53553391,-0.331109302
0.0832822924,4.04508497,-0.142819473
0.0839432629,4.45503262,0.0489872115
0.0846042335,4.75528258,0.239588382
0.0852652041,4.9384417,0.424290866
0.0859261747,5.0,0.598546467
0.0865871452,4.9384417,0.758063962
0.0872481158,4.75528258,0.898914895
0.0879090864,4.45503262,1.01763202
0.0885700569,4.04508497,1.11129183
0.0892310275,3.53553391,1.17758831
0.0898919981,2.93892626,1.2148888
0.0905529687,2.2699525,1.22227495
0.0912139392,1.54508497,1.1995648
0.0918749098,0.782172325,1.14731865
0.0925358804,-2.08876698e-13,1.06682297
0.093196851,-0.782172325,0.960056769
0.0938578215,-1.54508497,0.829653102
0.0945187921,-2.2699525,0.678819668
0.0951797627,-2.93892626,0.511270095
0.0958407333,-3.53553391,0.331131324
0.0965017038,-4.04508497,0.142839621
0.0971626744,-4.45503262,-0.0489696848
0.097823645,-4.75528258,-0.239572182
0.0984846156,-4.9384417,-0.424275358
0.0991455861,-5.0,-0.598531745
0.0998065567,-4.9384417,-0.758050264
0.100467527,-4.75528258,-0.898902081
0.101128498,-4.45503262,-1.01762037
0.101789468,-4.04508497,-1.1112818
0.102450439,-3.53553391,-1.17757992
0.10311141,-2.93892626,-1.21488176
0.10377238,-2.2699525,-1.22226849
0.104433351,-1.54508497,-1.19955885
0.105094321,-0.782172325,-1.14731215
0.105755292,3.50372942e-13,-1.06681481
0.106416262,0.782172325,-0.960048922
0.107077233,1.54508497,-0.829643289
0.107738204,2.2699525,-0.678809198
0.108399174,2.93892626,-0.511260523
0.109060145,3.53553391,-0.33112261
0.109721115,4.04508497,-0.142831095
0.110382086,4.45503262,0.0489772401
0.111043056,4.75528258,0.239579064
0.111704027,4.9384417,0.424282211
0.112364998,5.0,0.598537673
0.113025968,4.9384417,0.758055234
0.113686939,4.75528258,0.898906966
0.114347909,4.45503262,1.01762468
0.11500888,4.04508497,1.11128519
0.11566985,3.53553391,1.17758283
0.116330821,2.93892626,1.21488385
0.116991792,2.2699525,1.22227061
0.117652762,1.54508497,1.19956164
0.118313733,0.782172325,1.14731717
0.118974703,-4.74105618e-13,1.06682049
0.119635674,-0.782172325,0.96005431
0.120296645,-1.54508497,0.829650703
0.120957615,-2.2699525,0.678817311
0.121618586,-2.93892626,0.511268968
0.122279556,-3.53553391,0.331131438
0.122940527,-4.04508497,0.142840155
0.123601497,-4.45503262,-0.0489682818
0.124262468,-4.75528258,-0.239571077
0.124923439,-4.9384417,-0.424274822
0.125584409,-5.0,-0.598531538
0.12624538,-4.9384417,-0.75805059
0.12690635,-4.75528258,-0.898904112
0.127567321,-4.45503262,-1.01762351
0.128228291,-4.04508497,-1.11128619
0.128889262,-3.53553391,-1.17758382
0.129550233,-2.93892626,-1.21488479
0.130211203,-2.2699525,-1.22227129
0.130872174,-1.54508497,-1.19956148
0.131533144,-0.782172325,-1.14731456
0.132194115,6.15601862e-13,-1.06681699
0.132855085,0.782172325,-0.960050922
0.133516056,1.54508497,-0.829645326
0.134177027,2.2699525,-0.678811082
0.134837997,2.93892626,-0.511262055
0.135498968,3.53553391,-0.331125991
0.136159938,4.04508497,-0.142835342
0.136820909,4.45503262,0.0489727038
0.137481879,4.75528258,0.239575304
0.13814285,4.9384417,0.424278857
0.138803821,5.0,0.59853467
0.139464791,4.9384417,0.758054303
0.140125762,4.75528258,0.898906114
0.140786732,4.45503262,1.01762481
0.141447703,4.04508497,1.11128671
0.142108673,3.53553391,1.17758356
0.142769644,2.93892626,1.21488443
0.143430615,2.2699525,1.22227117
0.144091585,1.54508497,1.19956155
0.144752556,0.782172325,1.14731448
0.145413526,-7.57098106e-13,1.0668169
0.146074497,-0.782172325,0.960050812
0.146735467,-1.54508497,0.829645189
0.147396438,-2.2699525,0.678810571
0.148057409,-2.93892626,0.511261806
0.148718379,-3.53553391,0.33112427
0.14937935,-4.04508497,0.142833179
0.15004032,-4.45503262,-0.0489748085
0.150701291,-4.75528258,-0.239576849
0.151362261,-4.9384417,-0.424280307
0.152023232,-5.0,-0.598536883
0.152684203,-4.9384417,-0.758056222
0.153345173,-4.75528258,-0.898907789
0.154006144,-4.45503262,-1.01762598
0.154667114,-4.04508497,-1.11128655
0.155328085,-3.53553391,-1.17758326
0.155989056,-2.93892626,-1.21488432
0.156650026,-2.2699525,-1.2222711
0.157310997,-1.54508497,-1.19956142
0.157971967,-0.782172325,-1.14731447
0.158632938,8.80830782e-13,-1.06681905
0.159293908,0.782172325,-0.960055204
0.159954879,1.54508497,-0.82965055
0.16061585,2.2699525,-0.678815805
0.16127682,2.93892626,-0.511266532
0.161937791,3.53553391,-0.331128265
0.162598761,4.04508497,-0.142836048
0.163259732,4.45503262,0.0489721918
0.163920702,4.75528258,0.239574849
0.164581673,4.9384417,0.424278069
0.165242644,5.0,0.598533953
0.165903614,4.9384417,0.758052067
0.166564585,4.75528258,0.89890438
0.167225555,4.45503262,1.01762211
0.167886526,4.04508497,1.11128313
0.168547496,3.53553391,1.17758334
0.169208467,2.93892626,1.21488734
0.169869438,2.2699525,1.2222752
0.170530408,1.54508497,1.19956746
0.171191379,0.782172325,1.14732482
0.171852349,-1.00456346e-12,1.06682691
0.17251332,-0.782172325,0.96006177
0.17317429,-1.54508497,0.829654219
0.173835261,-2.2699525,0.678820596
0.174496232,-2.93892626,0.511271668
0.175157202,-3.53553391,0.331133065
0.175818173,-4.04508497,0.142841279
0.176479143,-4.45503262,-0.0489680287
0.177140114,-4.75528258,-0.239570726
0.177801084,-4.9384417,-0.424274189
0.178462055,-5.0,-0.598530084
0.179123026,-4.9384417,-0.758048554
0.179783996,-4.75528258,-0.898899344
0.180444967,-4.45503262,-1.01761787
0.181105937,-4.04508497,-1.11127817
0.181766908,-3.53553391,-1.17757624
0.182427878,-2.93892626,-1.21487784
0.183088849,-2.2699525,-1.22226492
0.18374982,-1.54508497,-1.19955565
0.18441079,-0.782172325,-1.14730917
0.185071761,1.12829613e-12,-1.06681209
0.185732731,0.782172325,-0.960046378
0.186393702,1.54508497,-0.829640802
0.187054673,2.2699525,-0.67880691
0.187715643,2.93892626,-0.511258493
0.188376614,3.53553391,-0.331121235
0.189037584,4.04508497,-0.142830502
0.189698555,4.45503262,0.0489772168
0.190359525,4.75528258,0.23957985
0.191020496,4.9384417,0.424284943
0.191681467,5.0,0.598541671
0.192342437,4.9384417,0.758059288
0.193003408,4.75528258,0.898910208
0.193664378,4.45503262,1.01762774
0.194325349,4.04508497,1.11128836
0.194986319,3.53553391,1.17758505
0.19564729,2.93892626,1.21488614
0.196308261,2.2699525,1.2222731
0.196969231,1.54508497,1.1995632
0.197630202,0.782172325,1.1473162
0.198291172,-1.28755595e-12,1.06681842
0.198952143,-0.782172325,0.960052695
0.199613113,-1.54508497,0.829648512
0.200274084,-2.2699525,0.678813501
0.200935055,-2.93892626,0.511263954
0.201596025,-3.53553391,0.33112595
0.202256996,-4.04508497,0.142834466
0.202917966,-4.45503262,-0.048973385
0.203578937,-4.75528258,-0.239575429
0.204239907,-4.9384417,-0.42427864
0.204900878,-5.0,-0.598534369
0.205561849,-4.9384417,-0.758052682
0.206222819,-4.75528258,-0.898906456
0.20688379,-4.45503262,-1.01762446
0.20754476,-4.04508497,-1.11128499
0.208205731,-3.53553391,-1.17758197
0.208866701,-2.93892626,-1.21488373
0.209527672,-2.2699525,-1.22227047
0.210188643,-1.54508497,-1.19956077
0.210849613,-0.782172325,-1.14731389
0.211510584,1.41128862e-12,-1.06681715
0.212171554,0.782172325,-0.960053312
0.212832525,1.54508497,-0.829649615
0.213493495,2.2699525,-0.678815274
0.214154466,2.93892626,-0.51126785
0.214815437,3.53553391,-0.33113125
0.215476407,4.04508497,-0.142839855
0.216137378,4.45503262,0.0489685858
0.216798348,4.75528258,0.239571309
0.217459319,4.9384417,0.4242748
0.218120289,5.0,0.598531554
0.21878126,4.9384417,0.758051565
0.219442231,4.75528258,0.898903776
0.220103201,4.45503262,1.01762237
0.220764172,4.04508497,1.11128395
0.221425142,3.53553391,1.17758158
0.222086113,2.93892626,1.21488266
0.222747084,2.2699525,1.22226933
0.223408054,1.54508497,1.19955968
0.224069025,0.782172325,1.14731274
0.224729995,-1.5350213e-12,1.06681534
0.225390966,-0.782172325,0.960049438
0.226051936,-1.54508497,0.829643886
0.226712907,-2.2699525,0.678809624
0.227373878,-2.93892626,0.511260505
0.228034848,-3.53553391,0.3311231
0.228695819,-4.04508497,0.142832793
0.229356789,-4.45503262,-0.0489751901
0.23001776,-4.75528258,-0.239577563
0.23067873,-4.9384417,-0.424280808
0.231339701,-5.0,-0.598536224
0.232000672,-4.9384417,-0.758054547
0.232661642,-4.75528258,-0.89890584
0.233322613,-4.45503262,-1.0176239
0.233983583,-4.04508497,-1.11128441
0.234644554,-3.53553391,-1.17758178
0.235305524,-2.93892626,-1.21488285
0.235966495,-2.2699525,-1.22226954
0.236627466,-1.54508497,-1.19955986
0.237288436,-0.782172325,-1.14731307
0.237949407,1.69428111e-12,-1.06681563
0.238610377,0.782172325,-0.960049667
0.239271348,1.54508497,-0.829646365
0.239932318,2.2699525,-0.678813258
0.240593289,2.93892626,-0.511264388
0.24125426,3.53553391,-0.331126331
0.24191523,4.04508497,-0.142835917
0.242576201,4.45503262,0.048972242
0.243237171,4.75528258,0.239574623
0.243898142,4.9384417,0.424278041
0.244559112,5.0,0.598534776
0.245220083,4.9384417,0.758054859
0.245881054,4.75528258,0.898907166
0.246542024,4.45503262,1.0176248
0.247202995,4.04508497,1.11128505
0.247863965,3.53553391,1.17758211
0.248524936,2.93892626,1.21488366
0.249185906,2.2699525,1.22227027
0.249846877,1.54508497,1.19956055
0.250507848,0.782172325,1.14731364
0.251168818,-1.74695951e-12,1.06681606
0.251829789,-0.782172325,0.960050691
0.252490759,-1.54508497,0.829645068
0.25315173,-2.2699525,0.678812576
0.253812701,-2.93892626,0.511263718
0.254473671,-3.53553391,0.331125654
0.255134642,-4.04508497,0.142834547
0.255795612,-4.45503262,-0.0489735278
0.256456583,-4.75528258,-0.239575686
0.257117553,-4.9384417,-0.424279011
0.257778524,-5.0,-0.598535816
0.258439495,-4.9384417,-0.758056176
0.259100465,-4.75528258,-0.898904703
0.259761436,-4.45503262,-1.01762484
0.260422406,-4.04508497,-1.11127857
0.261083377,-3.53553391,-1.17757752
0.261744347,-2.93892626,-1.21488012
0.262405318,-2.2699525,-1.22226861
0.263066289,-1.54508497,-1.19955925
0.263727259,-0.782172325,-1.14731153
0.26438823,-4.77732003e-14,-1.06681375
