TIME,Addition_2.s_out.signal[1],SensorVoltage_1.v
0.0,0.0,0.0
0.018824679,0.782172325,0.248295221
0.0376493581,1.54508497,0.622332291
0.0564740371,2.2699525,0.991772981
0.0752987161,2.93892626,1.33765687
0.0941233952,3.53553391,1.65067223
0.112948074,4.04508497,1.92304897
0.131772753,4.45503262,2.14807407
0.150597432,4.75528258,2.32020635
0.169422111,4.9384417,2.43520802
0.18824679,5.0,2.49024715
0.207071469,4.9384417,2.48396743
0.225896148,4.75528258,2.41652436
0.244720827,4.45503262,2.28957871
0.263545506,4.04508497,2.10625558
0.282370186,3.53553391,1.87106957
0.301194865,2.93892626,1.58981388
0.320019544,2.2699525,1.26940934
0.338844223,1.54508497,0.917747257
0.357668902,0.782172325,0.543487741
0.376493581,-1.6081428700000002e-15,0.155845854
0.39531826,-0.782172325,-0.235633071
0.414142939,-1.54508497,-0.621310503
0.432967618,-2.2699525,-0.991688778
0.451792297,-2.93892626,-1.33764868
0.470616976,-3.53553391,-1.65067106
0.489441655,-4.04508497,-1.92304715
0.508266334,-4.45503262,-2.14807402
0.527091013,-4.75528258,-2.32020631
0.545915692,-4.9384417,-2.43520814
0.564740371,-5.0,-2.49024769
0.58356505,-4.9384417,-2.48397072
0.602389729,-4.75528258,-2.41652536
0.621214408,-4.45503262,-2.28957983
0.640039087,-4.04508497,-2.10625798
0.658863766,-3.53553391,-1.87107147
0.677688445,-2.93892626,-1.5898136
0.696513124,-2.2699525,-1.26940837
0.715337803,-1.54508497,-0.917746756
0.734162482,-0.782172325,-0.543487179
0.752987161,1.6538962e-14,-0.155846011
0.77181184,0.782172325,0.235632975
0.790636519,1.54508497,0.621310105
0.809461198,2.2699525,0.99168848
0.828285877,2.93892626,1.33764819
0.847110557,3.53553391,1.65067123
0.865935236,4.04508497,1.92304921
0.884759915,4.45503262,2.14807376
0.903584594,4.75528258,2.32020636
0.922409273,4.9384417,2.43520801
0.941233952,5.0,2.49024664
0.960058631,4.9384417,2.48396739
0.97888331,4.75528258,2.41652447
0.997707989,4.45503262,2.28957874
1.01653267,4.04508497,2.10625589
1.03535735,3.53553391,1.87106923
1.05418203,2.93892626,1.58981227
1.0730067,2.2699525,1.2694082
1.09183138,1.54508497,0.91774633
1.11065606,0.782172325,0.543488022
1.12948074,1.83690953e-15,0.155846077
1.14830542,-0.782172325,-0.235633029
1.1671301,-1.54508497,-0.62131043
1.18595478,-2.2699525,-0.991689153
1.20477946,-2.93892626,-1.33764981
1.22360414,-3.53553391,-1.6506732
1.24242882,-4.04508497,-1.92305056
1.2612535,-4.45503262,-2.14807767
1.28007817,-4.75528258,-2.32020575
1.29890285,-4.9384417,-2.43521047
1.31772753,-5.0,-2.49024822
1.33655221,-4.9384417,-2.48396753
1.35537689,-4.75528258,-2.41652369
1.37420157,-4.45503262,-2.28957794
1.39302625,-4.04508497,-2.10625584
1.41185093,-3.53553391,-1.87107005
1.43067561,-2.93892626,-1.58981222
1.44950029,-2.2699525,-1.26940805
1.46832496,-1.54508497,-0.917746743
1.48714964,-0.782172325,-0.543487522
1.50597432,-8.23852705e-14,-0.155845814
1.524799,0.782172325,0.235633075
1.54362368,1.54508497,0.621310225
1.56244836,2.2699525,0.99168998
1.58127304,2.93892626,1.33764854
1.60009772,3.53553391,1.65067063
1.6189224,4.04508497,1.92304797
1.63774708,4.45503262,2.14807329
1.65657175,4.75528258,2.3202065
1.67539643,4.9384417,2.43520801
1.69422111,5.0,2.49024709
1.71304579,4.9384417,2.48396725
1.73187047,4.75528258,2.41652441
1.75069515,4.45503262,2.28957873
1.76951983,4.04508497,2.10625583
1.78834451,3.53553391,1.87107016
1.80716919,2.93892626,1.58981233
1.82599387,2.2699525,1.26940809
1.84481855,1.54508497,0.917746991
1.86364322,0.782172325,0.543487585
1.8824679,1.62933631e-13,0.155845903
1.90129258,-0.782172325,-0.235633089
1.92011726,-1.54508497,-0.621310473
1.93894194,-2.2699525,-0.991688974
1.95776662,-2.93892626,-1.33764948
1.9765913,-3.53553391,-1.6506727
1.99541598,-4.04508497,-1.92304812
2.01424066,-4.45503262,-2.14807303
2.03306534,-4.75528258,-2.32020648
2.05189001,-4.9384417,-2.43520741
2.07071469,-5.0,-2.49024659
2.08953937,-4.9384417,-2.48396763
2.10836405,-4.75528258,-2.41652423
2.12718873,-4.45503262,-2.28957855
2.14601341,-4.04508497,-2.10625548
2.16483809,-3.53553391,-1.87106993
2.18366277,-2.93892626,-1.58981236
2.20248745,-2.2699525,-1.26940818
2.22131213,-1.54508497,-0.917745804
2.24013681,-0.782172325,-0.543487415
2.25896148,-2.34600208e-13,-0.155846071
2.27778616,0.782172325,0.235633036
2.29661084,1.54508497,0.621310115
2.31543552,2.2699525,0.991688666
2.3342602,2.93892626,1.33764931
2.35308488,3.53553391,1.65067183
2.37190956,4.04508497,1.92304859
2.39073424,4.45503262,2.14807348
2.40955892,4.75528258,2.32020634
2.4283836,4.9384417,2.43520803
2.44720827,5.0,2.49024663
2.46603295,4.9384417,2.48396726
2.48485763,4.75528258,2.41652441
2.50368231,4.45503262,2.2895782
2.52250699,4.04508497,2.10625589
2.54133167,3.53553391,1.87106974
2.56015635,2.93892626,1.58981329
2.57898103,2.2699525,1.26940854
2.59780571,1.54508497,0.917746766
2.61663039,0.782172325,0.543487647
2.63545506,3.06266785e-13,0.155845984
2.65427974,-0.782172325,-0.235633138
2.67310442,-1.54508497,-0.621310239
2.6919291,-2.2699525,-0.991688583
2.71075378,-2.93892626,-1.33764827
2.72957846,-3.53553391,-1.65067281
2.74840314,-4.04508497,-1.92305188
2.76722782,-4.45503262,-2.14807711
2.7860525,-4.75528258,-2.32020674
2.80487718,-4.9384417,-2.43520814
2.82370186,-5.0,-2.49024679
2.84252653,-4.9384417,-2.4839674
2.86135121,-4.75528258,-2.4165244
2.88017589,-4.45503262,-2.28957849
2.89900057,-4.04508497,-2.10625556
2.91782525,-3.53553391,-1.87107034
2.93664993,-2.93892626,-1.58981145
2.95547461,-2.2699525,-1.26940962
2.97429929,-1.54508497,-0.917747021
2.99312397,-0.782172325,-0.543487726
3.01194865,-3.77933362e-13,-0.155846215
3.03077332,0.782172325,0.235633029
3.049598,1.54508497,0.621310687
3.06842268,2.2699525,0.991689455
3.08724736,2.93892626,1.33764881
3.10607204,3.53553391,1.65067224
3.12489672,4.04508497,1.92304856
3.1437214,4.45503262,2.14807527
3.16254608,4.75528258,2.32020855
3.18137076,4.9384417,2.43521011
3.20019544,5.0,2.4902451
3.21902011,4.9384417,2.48396798
3.23784479,4.75528258,2.41652905
3.25666947,4.45503262,2.28958185
3.27549415,4.04508497,2.10625647
3.29431883,3.53553391,1.87107127
3.31314351,2.93892626,1.58981378
3.33196819,2.2699525,1.26940942
3.35079287,1.54508497,0.91774797
3.36961755,0.782172325,0.543487796
3.38844223,4.67363507e-13,0.155846075
3.40726691,-0.782172325,-0.235633078
3.42609158,-1.54508497,-0.621310828
3.44491626,-2.2699525,-0.991689986
3.46374094,-2.93892626,-1.33764822
3.48256562,-3.53553391,-1.65066923
3.5013903,-4.04508497,-1.92304915
3.52021498,-4.45503262,-2.1480745
3.53903966,-4.75528258,-2.32020676
3.55786434,-4.9384417,-2.43520834
3.57668902,-5.0,-2.4902468
3.5955137,-4.9384417,-2.48396734
3.61433837,-4.75528258,-2.4165244
3.63316305,-4.45503262,-2.28957869
3.65198773,-4.04508497,-2.10625561
3.67081241,-3.53553391,-1.87106956
3.68963709,-2.93892626,-1.58981192
3.70846177,-2.2699525,-1.26940886
3.72728645,-1.54508497,-0.917747718
3.74611113,-0.782172325,-0.54348764
3.76493581,-5.39030084e-13,-0.155846007
3.78376049,0.782172325,0.235632968
3.80258516,1.54508497,0.62131052
3.82140984,2.2699525,0.991688571
3.84023452,2.93892626,1.33764819
3.8590592,3.53553391,1.6506702
3.87788388,4.04508497,1.92304789
3.89670856,4.45503262,2.14807387
3.91553324,4.75528258,2.32020639
3.93435792,4.9384417,2.43520766
3.9531826,5.0,2.49024679
3.97200728,4.9384417,2.48396746
3.99083196,4.75528258,2.41652446
4.00965663,4.45503262,2.28957865
4.02848131,4.04508497,2.10625571
4.04730599,3.53553391,1.87107013
4.06613067,2.93892626,1.58981173
4.08495535,2.2699525,1.26940715
4.10378003,1.54508497,0.917746825
4.12260471,0.782172325,0.543487668
4.14142939,4.86351682e-13,0.155846282
4.16025407,-0.782172325,-0.235632925
4.17907875,-1.54508497,-0.621310458
4.19790342,-2.2699525,-0.991688978
4.2167281,-2.93892626,-1.33764905
4.23555278,-3.53553391,-1.65067224
4.25437746,-4.04508497,-1.92305014
4.27320214,-4.45503262,-2.14807035
4.29202682,-4.75528258,-2.32020746
4.3108515,-4.9384417,-2.43520935
4.32967618,-5.0,-2.49024828
4.34850086,-4.9384417,-2.48396749
4.36732554,-4.75528258,-2.41652515
4.38615021,-4.45503262,-2.28958119
4.40497489,-4.04508497,-2.10625868
4.42379957,-3.53553391,-1.87107114
4.44262425,-2.93892626,-1.58981234
4.46144893,-2.2699525,-1.26940852
4.48027361,-1.54508497,-0.917747834
4.49909829,-0.782172325,-0.543488163
4.51792297,-1.84983322e-13,-0.155845907
4.53674765,0.782172325,0.235633123
4.55557233,1.54508497,0.621310438
4.57439701,2.2699525,0.991688797
4.59322168,2.93892626,1.33764904
4.61204636,3.53553391,1.65067132
4.63087104,4.04508497,1.92304801
4.64969572,4.45503262,2.14807248
4.6685204,4.75528258,2.32020621
4.68734508,4.9384417,2.43520796
4.70616976,5.0,2.49024707
4.72499444,4.9384417,2.48396753
4.74381912,4.75528258,2.4165245
4.7626438,4.45503262,2.28957867
4.78146847,4.04508497,2.1062557
4.80029315,3.53553391,1.87106959
4.81911783,2.93892626,1.58981217
4.83794251,2.2699525,1.26940815
4.85676719,1.54508497,0.917746958
4.87559187,0.782172325,0.543487665
4.89441655,-8.08579007e-14,0.155846029
4.91324123,-0.782172325,-0.235633147
4.93206591,-1.54508497,-0.621310374
4.95089059,-2.2699525,-0.991689066
4.96971526,-2.93892626,-1.33764943
4.98853994,-3.53553391,-1.65067246
5.00736462,-4.04508497,-1.92304807
5.0261893,-4.45503262,-2.14807428
5.04501398,-4.75528258,-2.32020726
5.06383866,-4.9384417,-2.43520804
5.08266334,-5.0,-2.49024688
5.10148802,-4.9384417,-2.48396718
5.1203127,-4.75528258,-2.41652477
5.13913738,-4.45503262,-2.28957868
5.15796206,-4.04508497,-2.10625596
5.17678673,-3.53553391,-1.87107012
5.19561141,-2.93892626,-1.58981241
5.21443609,-2.2699525,-1.26940751
5.23326077,-1.54508497,-0.917745778
5.25208545,-0.782172325,-0.543487594
5.27091013,3.8222626e-13,-0.155846051
5.28973481,0.782172325,0.235632951
5.30855949,1.54508497,0.621310851
5.32738417,2.2699525,0.991689447
5.34620885,2.93892626,1.33764859
5.36503352,3.53553391,1.65067053
5.3838582,4.04508497,1.92304791
5.40268288,4.45503262,2.14807413
5.42150756,4.75528258,2.32020772
5.44033224,4.9384417,2.43520833
5.45915692,5.0,2.49024674
5.4779816,4.9384417,2.48396716
5.49680628,4.75528258,2.41652446
5.51563096,4.45503262,2.2895787
5.53445564,4.04508497,2.10625554
5.55328032,3.53553391,1.87106975
5.57210499,2.93892626,1.58981227
5.59092967,2.2699525,1.26940747
5.60975435,1.54508497,0.917747055
5.62857903,0.782172325,0.543488166
5.64740371,-6.8359462e-13,0.155846311
5.66622839,-0.782172325,-0.235633121
5.68505307,-1.54508497,-0.621310019
5.70387775,-2.2699525,-0.991688468
5.72270243,-2.93892626,-1.33764809
5.74152711,-3.53553391,-1.65067054
5.76035178,-4.04508497,-1.92304805
5.77917646,-4.45503262,-2.14807357
5.79800114,-4.75528258,-2.32020643
5.81682582,-4.9384417,-2.43520811
5.8356505,-5.0,-2.49024699
5.85447518,-4.9384417,-2.48396747
5.87329986,-4.75528258,-2.41652448
5.89212454,-4.45503262,-2.28957873
5.91094922,-4.04508497,-2.10625595
5.9297739,-3.53553391,-1.87107002
5.94859857,-2.93892626,-1.58981254
5.96742325,-2.2699525,-1.26941052
5.98624793,-1.54508497,-0.917747557
6.00507261,-0.782172325,-0.543488085
6.02389729,9.84962979e-13,-0.155846073
6.04272197,0.782172325,0.23563309
6.06154665,1.54508497,0.621310668
6.08037133,2.2699525,0.991689541
6.09919601,2.93892626,1.33764903
6.11802069,3.53553391,1.65067146
6.13684537,4.04508497,1.92304906
6.15567004,4.45503262,2.14807384
6.17449472,4.75528258,2.32020885
6.1933194,4.9384417,2.43520867
6.21214408,5.0,2.49024661
6.23096876,4.9384417,2.48396731
6.24979344,4.75528258,2.4165245
6.26861812,4.45503262,2.28957864
6.2874428,4.04508497,2.10625595
6.30626748,3.53553391,1.87106989
6.32509216,2.93892626,1.58981255
6.34391683,2.2699525,1.26940783
6.36274151,1.54508497,0.917747407
6.38156619,0.782172325,0.543487833
6.40039087,-1.2508042e-12,0.155845762
6.41921555,-0.782172325,-0.235633093
6.43804023,-1.54508497,-0.621310595
6.45686491,-2.2699525,-0.991689619
6.47568959,-2.93892626,-1.33764897
6.49451427,-3.53553391,-1.65067173
6.51333895,-4.04508497,-1.92304857
6.53216362,-4.45503262,-2.14807348
6.5509883,-4.75528258,-2.32020619
6.56981298,-4.9384417,-2.43520791
6.58863766,-5.0,-2.49024704
6.60746234,-4.9384417,-2.48396744
6.62628702,-4.75528258,-2.41652372
6.6451117,-4.45503262,-2.28957953
6.66393638,-4.04508497,-2.10625851
6.68276106,-3.53553391,-1.87107267
6.70158574,-2.93892626,-1.58981421
6.72041042,-2.2699525,-1.26940898
6.73923509,-1.54508497,-0.917748275
6.75805977,-0.782172325,-0.543488503
6.77688445,1.55217256e-12,-0.155846648
6.79570913,0.782172325,0.235632884
6.81453381,1.54508497,0.621310498
6.83335849,2.2699525,0.991689429
6.85218317,2.93892626,1.33764925
6.87100785,3.53553391,1.65067132
6.88983253,4.04508497,1.92304933
6.90865721,4.45503262,2.14807485
6.92748188,4.75528258,2.3202073
6.94630656,4.9384417,2.43521023
6.96513124,5.0,2.49024952
6.98395592,4.9384417,2.48396861
7.0027806,4.75528258,2.41652661
7.02160528,4.45503262,2.28957961
7.04042996,4.04508497,2.10625637
7.05925464,3.53553391,1.87107022
7.07807932,2.93892626,1.58981174
7.096904,2.2699525,1.26940977
7.11572867,1.54508497,0.917750081
7.13455335,0.782172325,0.543489003
7.15337803,-1.85354092e-12,0.155846354
7.17220271,-0.782172325,-0.235633049
7.19102739,-1.54508497,-0.621310391
7.20985207,-2.2699525,-0.991689556
7.22867675,-2.93892626,-1.33764872
7.24750143,-3.53553391,-1.6506707
7.26632611,-4.04508497,-1.92304788
7.28515079,-4.45503262,-2.14807347
7.30397547,-4.75528258,-2.32020635
7.32280014,-4.9384417,-2.43520815
7.34162482,-5.0,-2.49024672
7.3604495,-4.9384417,-2.48397207
7.37927418,-4.75528258,-2.41652997
7.39809886,-4.45503262,-2.28958007
7.41692354,-4.04508497,-2.10625624
7.43574822,-3.53553391,-1.87106982
7.4545729,-2.93892626,-1.58981237
7.47339758,-2.2699525,-1.26940819
7.49222226,-1.54508497,-0.917747861
7.51104693,-0.782172325,-0.543488342
7.52987161,-4.77732003e-14,-0.155846596
