TIME,Addition_2.s_out.signal[1],SensorVoltage_1.v
0.0,0.0,0.0
0.00321403656,0.782172325,0.0731494619
0.00642807312,1.54508497,0.255591091
0.00964210968,2.2699525,0.50411248
0.0128561462,2.93892626,0.787368087
0.0160701828,3.53553391,1.08195198
0.0192842194,4.04508497,1.3699034
0.0224982559,4.45503262,1.63716439
0.0257122925,4.75528258,1.8726035
0.028926329,4.9384417,2.06746502
0.0321403656,5.0,2.21502198
0.0353544021,4.9384417,2.31038471
0.0385684387,4.75528258,2.35039144
0.0417824753,4.45503262,2.33351493
0.0449965118,4.04508497,2.25983032
0.0482105484,3.53553391,2.13092341
0.0514245849,2.93892626,1.94982136
0.0546386215,2.2699525,1.72088933
0.0578526581,1.54508497,1.44970038
0.0610666946,0.782172325,1.14289104
0.0642807312,5.05319528e-15,0.807989912
0.0674947677,-0.782172325,0.453225012
0.0707088043,-1.54508497,0.0873210208
0.0739228408,-2.2699525,-0.280718675
0.0771368774,-2.93892626,-0.641837654
0.080350914,-3.53553391,-0.98714603
0.0835649505,-4.04508497,-1.30814324
0.0867789871,-4.45503262,-1.59692692
0.0899930236,-4.75528258,-1.84638739
0.0932070602,-4.9384417,-2.0503842
0.0964210968,-5.0,-2.20389369
0.0996351333,-4.9384417,-2.30313438
0.10284917,-4.75528258,-2.34565481
0.106063206,-4.45503262,-2.33042808
0.109277243,-4.04508497,-2.25781942
0.11249128,-3.53553391,-2.12961597
0.115705316,-2.93892626,-1.94897431
0.118919353,-2.2699525,-1.72033974
0.122133389,-1.54508497,-1.44934163
0.125347426,-0.782172325,-1.14265823
0.128561462,1.20980699e-14,-0.807838245
0.131775499,0.782172325,-0.45312657
0.134989535,1.54508497,-0.0872574463
0.138203572,2.2699525,0.280759989
0.141417609,2.93892626,0.641864171
0.144631645,3.53553391,0.987164416
0.147845682,4.04508497,1.30815585
0.151059718,4.45503262,1.59693725
0.154273755,4.75528258,1.84639871
0.157487791,4.9384417,2.05039038
0.160701828,5.0,2.20389379
0.163915864,4.9384417,2.30313451
0.167129901,4.75528258,2.34566115
0.170343938,4.45503262,2.33043127
0.173557974,4.04508497,2.2578177
0.176772011,3.53553391,2.12960995
0.179986047,2.93892626,1.94896418
0.183200084,2.2699525,1.72032834
0.18641412,1.54508497,1.44933241
0.189628157,0.782172325,1.14264935
0.192842194,3.73640463e-14,0.807830619
0.19605623,-0.782172325,0.45312181
0.199270267,-1.54508497,0.0872544663
0.202484303,-2.2699525,-0.28076206
0.20569834,-2.93892626,-0.641865609
0.208912376,-3.53553391,-0.987164769
0.212126413,-4.04508497,-1.30815762
0.215340449,-4.45503262,-1.59693721
0.218554486,-4.75528258,-1.84639607
0.221768523,-4.9384417,-2.05038951
0.224982559,-5.0,-2.20389643
0.228196596,-4.9384417,-2.3031366
0.231410632,-4.75528258,-2.3456647
0.234624669,-4.45503262,-2.33043668
0.237838705,-4.04508497,-2.25782323
0.241052742,-3.53553391,-2.12961892
0.244266778,-2.93892626,-1.94897187
0.247480815,-2.2699525,-1.72033346
0.250694852,-1.54508497,-1.44933687
0.253908888,-0.782172325,-1.14265238
0.257122925,-7.35034863e-14,-0.807832525
0.260336961,0.782172325,-0.453122297
0.263550998,1.54508497,-0.0872546121
0.266765034,2.2699525,0.280762392
0.269979071,2.93892626,0.641866002
0.273193107,3.53553391,0.987164294
0.276407144,4.04508497,1.30815735
0.279621181,4.45503262,1.59694077
0.282835217,4.75528258,1.84639783
0.286049254,4.9384417,2.05039011
0.28926329,5.0,2.20389739
0.292477327,4.9384417,2.30313445
0.295691363,4.75528258,2.34566135
0.2989054,4.45503262,2.33043112
0.302119437,4.04508497,2.2578183
0.305333473,3.53553391,2.12961039
0.30854751,2.93892626,1.94896458
0.311761546,2.2699525,1.72032885
0.314975583,1.54508497,1.44933115
0.318189619,0.782172325,1.14264715
0.321403656,1.1852471e-13,0.807829257
0.324617692,-0.782172325,0.453119559
0.327831729,-1.54508497,0.087252448
0.331045766,-2.2699525,-0.280763443
0.334259802,-2.93892626,-0.641866414
0.337473839,-3.53553391,-0.987164352
0.340687875,-4.04508497,-1.30815491
0.343901912,-4.45503262,-1.59693429
0.347115948,-4.75528258,-1.8463921
0.350329985,-4.9384417,-2.05038592
0.353544021,-5.0,-2.20389244
0.356758058,-4.9384417,-2.30313138
0.359972095,-4.75528258,-2.34566092
0.363186131,-4.45503262,-2.33043247
0.366400168,-4.04508497,-2.25782177
0.369614204,-3.53553391,-2.12961762
0.372828241,-2.93892626,-1.94897092
0.376042277,-2.2699525,-1.72033287
0.379256314,-1.54508497,-1.44933655
0.38247035,-0.782172325,-1.14265447
0.385684387,-1.63545935e-13,-0.807833978
0.388898424,0.782172325,-0.453123404
0.39211246,1.54508497,-0.087256104
0.395326497,2.2699525,0.280761248
0.398540533,2.93892626,0.641865614
0.40175457,3.53553391,0.987165086
0.404968606,4.04508497,1.30815786
0.408182643,4.45503262,1.59693748
0.41139668,4.75528258,1.84639721
0.414610716,4.9384417,2.05039069
0.417824753,5.0,2.20389775
0.421038789,4.9384417,2.30313406
0.424252826,4.75528258,2.34566179
0.427466862,4.45503262,2.33043102
0.430680899,4.04508497,2.25781776
0.433894935,3.53553391,2.12960993
0.437108972,2.93892626,1.94896641
0.440323009,2.2699525,1.72033257
0.443537045,1.54508497,1.44933807
0.446751082,0.782172325,1.14265536
0.449965118,1.99685375e-13,0.807835437
0.453179155,-0.782172325,0.453123181
0.456393191,-1.54508497,0.0872537844
0.459607228,-2.2699525,-0.280763281
0.462821264,-2.93892626,-0.641865986
0.466035301,-3.53553391,-0.987163877
0.469249338,-4.04508497,-1.30815461
0.472463374,-4.45503262,-1.5969345
0.475677411,-4.75528258,-1.84639244
0.478891447,-4.9384417,-2.05038662
0.482105484,-5.0,-2.20389416
0.48531952,-4.9384417,-2.3031333
0.488533557,-4.75528258,-2.34566089
0.491747593,-4.45503262,-2.33043057
0.49496163,-4.04508497,-2.25781714
0.498175667,-3.53553391,-2.12960968
0.501389703,-2.93892626,-1.94896404
0.50460374,-2.2699525,-1.7203286
0.507817776,-1.54508497,-1.44933303
0.511031813,-0.782172325,-1.14264997
0.514245849,-2.00297678e-13,-0.807831031
0.517459886,0.782172325,-0.453120638
0.520673923,1.54508497,-0.0872528007
0.523887959,2.2699525,0.280763464
0.527101996,2.93892626,0.641866609
0.530316032,3.53553391,0.987164183
0.533530069,4.04508497,1.30815504
0.536744105,4.45503262,1.59693443
0.539958142,4.75528258,1.84639221
0.543172178,4.9384417,2.05038708
0.546386215,5.0,2.20389234
0.549600252,4.9384417,2.30313218
0.552814288,4.75528258,2.34565952
0.556028325,4.45503262,2.33043028
0.559242361,4.04508497,2.2578175
0.562456398,3.53553391,2.12960935
0.565670434,2.93892626,1.94896604
0.568884471,2.2699525,1.72033238
0.572098507,1.54508497,1.44933845
0.575312544,0.782172325,1.14265467
0.578526581,-3.00164082e-14,0.80783688
0.581740617,-0.782172325,0.453127598
0.584954654,-1.54508497,0.0872574226
0.58816869,-2.2699525,-0.280760341
0.591382727,-2.93892626,-0.641864603
0.594596763,-3.53553391,-0.987163171
0.5978108,-4.04508497,-1.308154
0.601024836,-4.45503262,-1.5969353
0.604238873,-4.75528258,-1.84639497
0.60745291,-4.9384417,-2.05038876
0.610666946,-5.0,-2.20389805
0.613880983,-4.9384417,-2.30314209
0.617095019,-4.75528258,-2.34566118
0.620309056,-4.45503262,-2.33043159
0.623523092,-4.04508497,-2.25781974
0.626737129,-3.53553391,-2.12961627
0.629951165,-2.93892626,-1.94897081
0.633165202,-2.2699525,-1.720335
0.636379239,-1.54508497,-1.44933758
0.639593275,-0.782172325,-1.14265453
0.642807312,2.60330494e-13,-0.807835418
0.646021348,0.782172325,-0.453124848
0.649235385,1.54508497,-0.0872548353
0.652449421,2.2699525,0.280762732
0.655663458,2.93892626,0.64186631
0.658877495,3.53553391,0.987164387
0.662091531,4.04508497,1.30815468
0.665305568,4.45503262,1.59693422
0.668519604,4.75528258,1.84639191
0.671733641,4.9384417,2.05038541
0.674947677,5.0,2.20389146
0.678161714,4.9384417,2.30313056
0.68137575,4.75528258,2.34565893
0.684589787,4.45503262,2.33042941
0.687803824,4.04508497,2.25781678
0.69101786,3.53553391,2.12961191
0.694231897,2.93892626,1.94896946
0.697445933,2.2699525,1.72033194
0.70065997,1.54508497,1.44933406
0.703874006,0.782172325,1.14265056
0.707088043,-4.72881012e-13,0.807831355
0.710302079,-0.782172325,0.45312234
0.713516116,-1.54508497,0.0872558499
0.716730153,-2.2699525,-0.280761319
0.719944189,-2.93892626,-0.641865581
0.723158226,-3.53553391,-0.987165997
0.726372262,-4.04508497,-1.30815727
0.729586299,-4.45503262,-1.59693947
0.732800335,-4.75528258,-1.84640444
0.736014372,-4.9384417,-2.05039494
0.739228408,-5.0,-2.2038977
0.742442445,-4.9384417,-2.30313467
0.745656482,-4.75528258,-2.34566157
0.748870518,-4.45503262,-2.33043103
0.752084555,-4.04508497,-2.25781794
0.755298591,-3.53553391,-2.12960971
0.758512628,-2.93892626,-1.94896319
0.761726664,-2.2699525,-1.72032879
0.764940701,-1.54508497,-1.44933286
0.768154738,-0.782172325,-1.14264981
0.771368774,7.03195098e-13,-0.807830905
0.774582811,0.782172325,-0.453120216
0.777796847,1.54508497,-0.0872535304
0.781010884,2.2699525,0.280762973
0.78422492,2.93892626,0.641866271
0.787438957,3.53553391,0.987164284
0.790652993,4.04508497,1.30815506
0.79386703,4.45503262,1.59693535
0.797081067,4.75528258,1.84639267
0.800295103,4.9384417,2.05038744
0.80350914,5.0,2.20389308
0.806723176,4.9384417,2.30313232
0.809937213,4.75528258,2.34566095
0.813151249,4.45503262,2.33043106
0.816365286,4.04508497,2.25781783
0.819579322,3.53553391,2.12961
0.822793359,2.93892626,1.94896429
0.826007396,2.2699525,1.72032875
0.829221432,1.54508497,1.44933251
0.832435469,0.782172325,1.14264916
0.835649505,-9.33509184e-13,0.807830522
0.838863542,-0.782172325,0.453121157
0.842077578,-1.54508497,0.0872537787
0.845291615,-2.2699525,-0.280762845
0.848505651,-2.93892626,-0.641865116
0.851719688,-3.53553391,-0.987163639
0.854933725,-4.04508497,-1.30815604
0.858147761,-4.45503262,-1.5969367
0.861361798,-4.75528258,-1.84639532
0.864575834,-4.9384417,-2.05038897
0.867789871,-5.0,-2.2038935
0.871003907,-4.9384417,-2.30313283
0.874217944,-4.75528258,-2.34566087
0.877431981,-4.45503262,-2.33043058
0.880646017,-4.04508497,-2.25781764
0.883860054,-3.53553391,-2.12960999
0.88707409,-2.93892626,-1.9489643
0.890288127,-2.2699525,-1.72032788
0.893502163,-1.54508497,-1.44933086
0.8967162,-0.782172325,-1.14264847
0.899930236,1.16382327e-12,-0.807830854
0.903144273,0.782172325,-0.453120258
0.90635831,1.54508497,-0.0872526393
0.909572346,2.2699525,0.280763519
0.912786383,2.93892626,0.641866341
0.916000419,3.53553391,0.987164236
0.919214456,4.04508497,1.30815553
0.922428492,4.45503262,1.59693561
0.925642529,4.75528258,1.84639303
0.928856565,4.9384417,2.05038855
0.932070602,5.0,2.20389359
0.935284639,4.9384417,2.30313168
0.938498675,4.75528258,2.34565982
0.941712712,4.45503262,2.33042988
0.944926748,4.04508497,2.25781714
0.948140785,3.53553391,2.12960959
0.951354821,2.93892626,1.94896339
0.954568858,2.2699525,1.72032781
0.957782894,1.54508497,1.44933243
0.960996931,0.782172325,1.14264951
0.964210968,-1.39413736e-12,0.807830175
0.967425004,-0.782172325,0.453120056
0.970639041,-1.54508497,0.0872520644
0.973853077,-2.2699525,-0.280763926
0.977067114,-2.93892626,-0.641867234
0.98028115,-3.53553391,-0.987164761
0.983495187,-4.04508497,-1.30815646
0.986709224,-4.45503262,-1.59693171
0.98992326,-4.75528258,-1.84639084
0.993137297,-4.9384417,-2.05038402
0.996351333,-5.0,-2.2038911
0.99956537,-4.9384417,-2.30313103
1.00277941,-4.75528258,-2.34565996
1.00599344,-4.45503262,-2.33043003
1.00920748,-4.04508497,-2.25781727
1.01242152,-3.53553391,-2.12960968
1.01563555,-2.93892626,-1.94896371
1.01884959,-2.2699525,-1.72032838
1.02206363,-1.54508497,-1.44933277
1.02527766,-0.782172325,-1.14265185
1.0284917,1.37576148e-12,-0.807834224
1.03170574,0.782172325,-0.453124096
1.03491977,1.54508497,-0.0872558697
1.03813381,2.2699525,0.280761347
1.04134785,2.93892626,0.641865888
1.04456188,3.53553391,0.987167621
1.04777592,4.04508497,1.30815473
1.05098995,4.45503262,1.5969362
1.05420399,4.75528258,1.84639697
1.05741803,4.9384417,2.05039022
1.06063206,5.0,2.20389511
1.0638461,4.9384417,2.30313319
1.06706014,4.75528258,2.34566637
1.07027417,4.45503262,2.33044579
1.07348821,4.04508497,2.25783073
1.07670225,3.53553391,2.12962113
1.07991628,2.93892626,1.94897445
1.08313032,2.2699525,1.72033686
1.08634436,1.54508497,1.44933785
1.08955839,0.782172325,1.14265432
1.09277243,-1.07316852e-12,0.807833479
1.09598647,-0.782172325,0.45312379
1.0992005,-1.54508497,0.0872554863
1.10241454,-2.2699525,-0.280761737
1.10562858,-2.93892626,-0.641865346
1.10884261,-3.53553391,-0.987164866
1.11205665,-4.04508497,-1.3081554
1.11527069,-4.45503262,-1.59693461
1.11848472,-4.75528258,-1.84639359
1.12169876,-4.9384417,-2.05038801
1.1249128,-5.0,-2.20389424
1.12812683,-4.9384417,-2.30313212
1.13134087,-4.75528258,-2.34566026
1.13455491,-4.45503262,-2.33043027
1.13776894,-4.04508497,-2.25781739
1.14098298,-3.53553391,-2.12960985
1.14419701,-2.93892626,-1.948964
1.14741105,-2.2699525,-1.72032835
1.15062509,-1.54508497,-1.44933391
1.15383912,-0.782172325,-1.14265249
1.15705316,7.70575552e-13,-0.807832455
1.1602672,0.782172325,-0.453121281
1.16348123,1.54508497,-0.0872537502
1.16669527,2.2699525,0.280761615
1.16990931,2.93892626,0.641865181
1.17312334,3.53553391,0.987163752
1.17633738,4.04508497,1.30815478
1.17955142,4.45503262,1.59693495
1.18276545,4.75528258,1.84639341
1.18597949,4.9384417,2.05038925
1.18919353,5.0,2.20389532
1.19240756,4.9384417,2.30313349
1.1956216,4.75528258,2.34566065
1.19883564,4.45503262,2.33043073
1.20204967,4.04508497,2.25781778
1.20526371,3.53553391,2.12960956
1.20847775,2.93892626,1.94896342
1.21169178,2.2699525,1.72032795
1.21490582,1.54508497,1.44933198
1.21811986,0.782172325,1.14264919
1.22133389,-4.32455449e-13,0.80783022
1.22454793,-0.782172325,0.453119551
1.22776197,-1.54508497,0.0872524613
1.230976,-2.2699525,-0.280763514
1.23419004,-2.93892626,-0.641866301
1.23740408,-3.53553391,-0.987165019
1.24061811,-4.04508497,-1.30815536
1.24383215,-4.45503262,-1.59693474
1.24704618,-4.75528258,-1.84639331
1.25026022,-4.9384417,-2.05038627
1.25347426,-5.0,-2.20389293
1.25668829,-4.9384417,-2.30313319
1.25990233,-4.75528258,-2.34566048
1.26311637,-4.45503262,-2.33043085
1.2663304,-4.04508497,-2.25782009
1.26954444,-3.53553391,-2.12961793
1.27275848,-2.93892626,-1.94897083
1.27597251,-2.2699525,-1.72033299
1.27918655,-1.54508497,-1.44933702
1.28240059,-0.782172325,-1.14265206
1.28561462,-4.77732003e-14,-0.807834695
